A2_x,A2_y,A3_x,A3_y,A9_x,A9_y,A10_x,A10_y,B2_x,B2_y,B3_x,B3_y,B9_x,B9_y,B10_x,B10_y,C3_x,C3_y,C4_x,C4_y,C8_x,C8_y,C9_x,C9_y,D3_x,D3_y,D4_x,D4_y,D8_x,D8_y,D9_x,D9_y,E4_x,E4_y,E5_x,E5_y,E6_x,E6_y,E7_x,E7_y,E8_x,E8_y,F4_x,F4_y,F5_x,F5_y,F6_x,F6_y,F7_x,F7_y,F8_x,F8_y,G1_x,G1_y,G2_x,G2_y,G10_x,G10_y,G11_x,G11_y,G12_x,G12_y,H1_x,H1_y,H2_x,H2_y,H10_x,H10_y,H11_x,H11_y,H12_x,H12_y,Marks
0,-17749,0,-19870,0,-19268,0,-26199,0,-15815,0,-17234,0,-19019,0,-26211,0,-19924,0,-18143,0,-20057,0,-18993,0,-18402,0,-16630,0,-19706,0,-19377,0,-20945,0,-24785,0,-22642,0,-22794,0,-19282,0,-19682,0,-24653,0,-23215,0,-23787,0,-20372,0,-26190,0,-18283,0,-26216,0,-26184,0,-26184,0,-24288,0,-15974,0,-26214,0,-26189,0,-26189,0
0.1,-17835,0.1,-19969,0.1,-19282,0.1,-26186,0.1,-15897,0.1,-17330,0.1,-19037,0.1,-26205,0.1,-19932,0.1,-18147,0.1,-20061,0.1,-18981,0.1,-18438,0.1,-16632,0.1,-19723,0.1,-19440,0.1,-20940,0.1,-24796,0.1,-22669,0.1,-22816,0.1,-19300,0.1,-19566,0.1,-24579,0.1,-23126,0.1,-23705,0.1,-20289,0.1,-26112,0.1,-18275,0.1,-26210,0.1,-26185,0.1,-26185,0.1,-24266,0.1,-15946,0.1,-26207,0.1,-26198,0.1,-26198,0
0.2,-17856,0.2,-19975,0.2,-19309,0.2,-26209,0.2,-15884,0.2,-17334,0.2,-19013,0.2,-26213,0.2,-19939,0.2,-18183,0.2,-20067,0.2,-19003,0.2,-18477,0.2,-16698,0.2,-19755,0.2,-19446,0.2,-20911,0.2,-24755,0.2,-22630,0.2,-22738,0.2,-19266,0.2,-19612,0.2,-24607,0.2,-23122,0.2,-23716,0.2,-20321,0.2,-26138,0.2,-18239,0.2,-26199,0.2,-26181,0.2,-26181,0.2,-24198,0.2,-15933,0.2,-26194,0.2,-26192,0.2,-26192,0
0.3,-17819,0.3,-19954,0.3,-19308,0.3,-26209,0.3,-15898,0.3,-17301,0.3,-19039,0.3,-26215,0.3,-19925,0.3,-18142,0.3,-20020,0.3,-18994,0.3,-18481,0.3,-16725,0.3,-19752,0.3,-19458,0.3,-20843,0.3,-24705,0.3,-22591,0.3,-22705,0.3,-19202,0.3,-19619,0.3,-24579,0.3,-23098,0.3,-23677,0.3,-20357,0.3,-26093,0.3,-18226,0.3,-26203,0.3,-26181,0.3,-26181,0.3,-24230,0.3,-15953,0.3,-26209,0.3,-26201,0.3,-26201,0
0.4,-17816,0.4,-19957,0.4,-19266,0.4,-26221,0.4,-15819,0.4,-17223,0.4,-19003,0.4,-26185,0.4,-19886,0.4,-18140,0.4,-20014,0.4,-18919,0.4,-18391,0.4,-16627,0.4,-19723,0.4,-19422,0.4,-20921,0.4,-24754,0.4,-22608,0.4,-22738,0.4,-19254,0.4,-19633,0.4,-24620,0.4,-23144,0.4,-23748,0.4,-20321,0.4,-26171,0.4,-18195,0.4,-26210,0.4,-26189,0.4,-26189,0.4,-24211,0.4,-15862,0.4,-26197,0.4,-26183,0.4,-26183,0
0.5,-17764,0.5,-19905,0.5,-19228,0.5,-26217,0.5,-15821,0.5,-17259,0.5,-18974,0.5,-26207,0.5,-19860,0.5,-18078,0.5,-19960,0.5,-18912,0.5,-18423,0.5,-16689,0.5,-19737,0.5,-19416,0.5,-20809,0.5,-24715,0.5,-22523,0.5,-22632,0.5,-19180,0.5,-19653,0.5,-24642,0.5,-23115,0.5,-23735,0.5,-20301,0.5,-26178,0.5,-18149,0.5,-26215,0.5,-26191,0.5,-26191,0.5,-24227,0.5,-15864,0.5,-26206,0.5,-26186,0.5,-26186,0
0.6,-17718,0.6,-19885,0.6,-19172,0.6,-26204,0.6,-15794,0.6,-17228,0.6,-18950,0.6,-26223,0.6,-19816,0.6,-18057,0.6,-19940,0.6,-18856,0.6,-18379,0.6,-16601,0.6,-19669,0.6,-19362,0.6,-20859,0.6,-24735,0.6,-22516,0.6,-22661,0.6,-19170,0.6,-19462,0.6,-24550,0.6,-23032,0.6,-23643,0.6,-20242,0.6,-26116,0.6,-18126,0.6,-26214,0.6,-26184,0.6,-26184,0.6,-24202,0.6,-15813,0.6,-26208,0.6,-26190,0.6,-26190,0
0.7,-17685,0.7,-19847,0.7,-19152,0.7,-26184,0.7,-15809,0.7,-17248,0.7,-18933,0.7,-26215,0.7,-19858,0.7,-18071,0.7,-19963,0.7,-18880,0.7,-18450,0.7,-16654,0.7,-19724,0.7,-19409,0.7,-20838,0.7,-24748,0.7,-22618,0.7,-22723,0.7,-19167,0.7,-19485,0.7,-24551,0.7,-23100,0.7,-23652,0.7,-20250,0.7,-26088,0.7,-18219,0.7,-26219,0.7,-26187,0.7,-26187,0.7,-24290,0.7,-15894,0.7,-26214,0.7,-26193,0.7,-26193,0
0.8,-17779,0.8,-19908,0.8,-19202,0.8,-26188,0.8,-15846,0.8,-17278,0.8,-18979,0.8,-26204,0.8,-19912,0.8,-18131,0.8,-20027,0.8,-18960,0.8,-18431,0.8,-16658,0.8,-19754,0.8,-19445,0.8,-20863,0.8,-24760,0.8,-22619,0.8,-22754,0.8,-19231,0.8,-19529,0.8,-24565,0.8,-23132,0.8,-23697,0.8,-20271,0.8,-26120,0.8,-18263,0.8,-26214,0.8,-26194,0.8,-26194,0.8,-24287,0.8,-15916,0.8,-26215,0.8,-26196,0.8,-26196,0
0.9,-17843,0.9,-19985,0.9,-19280,0.9,-26223,0.9,-15906,0.9,-17347,0.9,-18988,0.9,-26234,0.9,-19938,0.9,-18171,0.9,-20053,0.9,-18991,0.9,-18476,0.9,-16699,0.9,-19783,0.9,-19446,0.9,-20946,0.9,-24769,0.9,-22669,0.9,-22761,0.9,-19283,0.9,-19600,0.9,-24598,0.9,-23162,0.9,-23722,0.9,-20309,0.9,-26141,0.9,-18264,0.9,-26205,0.9,-26187,0.9,-26187,0.9,-24274,0.9,-15947,0.9,-26219,0.9,-26191,0.9,-26191,0
1,-17830,1,-19948,1,-19274,1,-26215,1,-15906,1,-17326,1,-19025,1,-26232,1,-19908,1,-18130,1,-20025,1,-18973,1,-18516,1,-16762,1,-19797,1,-19465,1,-20939,1,-24811,1,-22657,1,-22771,1,-19287,1,-19587,1,-24570,1,-23110,1,-23707,1,-20298,1,-26088,1,-18252,1,-26209,1,-26187,1,-26187,1,-24281,1,-15903,1,-26206,1,-26193,1,-26193,0
1.1,-17828,1.1,-19961,1.1,-19261,1.1,-26211,1.1,-15884,1.1,-17298,1.1,-18996,1.1,-26218,1.1,-19883,1.1,-18143,1.1,-20004,1.1,-18960,1.1,-18433,1.1,-16682,1.1,-19755,1.1,-19448,1.1,-20869,1.1,-24762,1.1,-22620,1.1,-22701,1.1,-19243,1.1,-19547,1.1,-24554,1.1,-23081,1.1,-23676,1.1,-20292,1.1,-26079,1.1,-18239,1.1,-26209,1.1,-26193,1.1,-26193,1.1,-24256,1.1,-15917,1.1,-26218,1.1,-26187,1.1,-26187,0
1.2,-17793,1.2,-19939,1.2,-19227,1.2,-26220,1.2,-15848,1.2,-17280,1.2,-18978,1.2,-26206,1.2,-19907,1.2,-18145,1.2,-20022,1.2,-18970,1.2,-18442,1.2,-16647,1.2,-19700,1.2,-19421,1.2,-20909,1.2,-24761,1.2,-22609,1.2,-22716,1.2,-19237,1.2,-19588,1.2,-24630,1.2,-23110,1.2,-23725,1.2,-20300,1.2,-26148,1.2,-18191,1.2,-26214,1.2,-26185,1.2,-26185,1.2,-24240,1.2,-15897,1.2,-26219,1.2,-26193,1.2,-26193,0
1.3,-17757,1.3,-19900,1.3,-19190,1.3,-26208,1.3,-15853,1.3,-17290,1.3,-18962,1.3,-26227,1.3,-19870,1.3,-18072,1.3,-19965,1.3,-18902,1.3,-18401,1.3,-16597,1.3,-19679,1.3,-19390,1.3,-20872,1.3,-24755,1.3,-22579,1.3,-22682,1.3,-19205,1.3,-19582,1.3,-24600,1.3,-23110,1.3,-23697,1.3,-20291,1.3,-26144,1.3,-18130,1.3,-26215,1.3,-26194,1.3,-26194,1.3,-24203,1.3,-15887,1.3,-26233,1.3,-26186,1.3,-26186,0
1.4,-17703,1.4,-19881,1.4,-19164,1.4,-26207,1.4,-15805,1.4,-17230,1.4,-18921,1.4,-26208,1.4,-19817,1.4,-18030,1.4,-19893,1.4,-18860,1.4,-18384,1.4,-16594,1.4,-19654,1.4,-19353,1.4,-20893,1.4,-24736,1.4,-22548,1.4,-22639,1.4,-19187,1.4,-19548,1.4,-24597,1.4,-23079,1.4,-23691,1.4,-20253,1.4,-26166,1.4,-18061,1.4,-26211,1.4,-26186,1.4,-26186,1.4,-24196,1.4,-15798,1.4,-26218,1.4,-26177,1.4,-26177,0
1.5,-17634,1.5,-19818,1.5,-19089,1.5,-26203,1.5,-15770,1.5,-17221,1.5,-18886,1.5,-26223,1.5,-19762,1.5,-17990,1.5,-19884,1.5,-18774,1.5,-18378,1.5,-16615,1.5,-19706,1.5,-19340,1.5,-20825,1.5,-24733,1.5,-22548,1.5,-22676,1.5,-19149,1.5,-19530,1.5,-24575,1.5,-23088,1.5,-23673,1.5,-20267,1.5,-26143,1.5,-18065,1.5,-26203,1.5,-26189,1.5,-26189,1.5,-24183,1.5,-15812,1.5,-26220,1.5,-26184,1.5,-26184,0
1.6,-17689,1.6,-19883,1.6,-19137,1.6,-26194,1.6,-15808,1.6,-17239,1.6,-18914,1.6,-26222,1.6,-19857,1.6,-18066,1.6,-19955,1.6,-18874,1.6,-18396,1.6,-16659,1.6,-19729,1.6,-19342,1.6,-20864,1.6,-24751,1.6,-22588,1.6,-22748,1.6,-19201,1.6,-19485,1.6,-24533,1.6,-23086,1.6,-23685,1.6,-20249,1.6,-26067,1.6,-18167,1.6,-26211,1.6,-26186,1.6,-26186,1.6,-24253,1.6,-15846,1.6,-26219,1.6,-26189,1.6,-26189,0
1.7,-17775,1.7,-19930,1.7,-19206,1.7,-26215,1.7,-15855,1.7,-17302,1.7,-18964,1.7,-26232,1.7,-19906,1.7,-18103,1.7,-20004,1.7,-18942,1.7,-18459,1.7,-16710,1.7,-19759,1.7,-19401,1.7,-20953,1.7,-24817,1.7,-22660,1.7,-22770,1.7,-19275,1.7,-19607,1.7,-24582,1.7,-23145,1.7,-23729,1.7,-20317,1.7,-26128,1.7,-18185,1.7,-26214,1.7,-26187,1.7,-26187,1.7,-24270,1.7,-15872,1.7,-26208,1.7,-26198,1.7,-26198,0
1.8,-17803,1.8,-19962,1.8,-19233,1.8,-26224,1.8,-15830,1.8,-17291,1.8,-18938,1.8,-26215,1.8,-19867,1.8,-18099,1.8,-20001,1.8,-18929,1.8,-18424,1.8,-16685,1.8,-19748,1.8,-19390,1.8,-20883,1.8,-24781,1.8,-22613,1.8,-22741,1.8,-19219,1.8,-19508,1.8,-24561,1.8,-23085,1.8,-23677,1.8,-20270,1.8,-26089,1.8,-18199,1.8,-26201,1.8,-26185,1.8,-26185,1.8,-24255,1.8,-15869,1.8,-26207,1.8,-26190,1.8,-26190,0
1.9,-17763,1.9,-19918,1.9,-19211,1.9,-26205,1.9,-15818,1.9,-17283,1.9,-18958,1.9,-26199,1.9,-19871,1.9,-18104,1.9,-19989,1.9,-18926,1.9,-18445,1.9,-16643,1.9,-19751,1.9,-19422,1.9,-20813,1.9,-24721,1.9,-22578,1.9,-22687,1.9,-19188,1.9,-19512,1.9,-24531,1.9,-23058,1.9,-23677,1.9,-20294,1.9,-26089,1.9,-18175,1.9,-26213,1.9,-26188,1.9,-26188,1.9,-24247,1.9,-15856,1.9,-26210,1.9,-26194,1.9,-26194,0
2,-17758,2,-19914,2,-19180,2,-26205,2,-15811,2,-17268,2,-18947,2,-26208,2,-19855,2,-18071,2,-19938,2,-18898,2,-18422,2,-16662,2,-19724,2,-19385,2,-20839,2,-24759,2,-22591,2,-22701,2,-19183,2,-19479,2,-24555,2,-23094,2,-23668,2,-20242,2,-26136,2,-18135,2,-26210,2,-26195,2,-26195,2,-24216,2,-15837,2,-26219,2,-26192,2,-26192,0
2.1,-17680,2.1,-19840,2.1,-19150,2.1,-26194,2.1,-15814,2.1,-17253,2.1,-18939,2.1,-26217,2.1,-19815,2.1,-18066,2.1,-19947,2.1,-18859,2.1,-18386,2.1,-16598,2.1,-19710,2.1,-19357,2.1,-20791,2.1,-24700,2.1,-22518,2.1,-22646,2.1,-19140,2.1,-19523,2.1,-24592,2.1,-23107,2.1,-23676,2.1,-20275,2.1,-26164,2.1,-18046,2.1,-26198,2.1,-26194,2.1,-26194,2.1,-24176,2.1,-15809,2.1,-26222,2.1,-26182,2.1,-26182,0
2.2,-17663,2.2,-19834,2.2,-19127,2.2,-26212,2.2,-15739,2.2,-17202,2.2,-18886,2.2,-26198,2.2,-19828,2.2,-18027,2.2,-19913,2.2,-18826,2.2,-18367,2.2,-16595,2.2,-19675,2.2,-19343,2.2,-20761,2.2,-24697,2.2,-22463,2.2,-22607,2.2,-19102,2.2,-19450,2.2,-24563,2.2,-23054,2.2,-23664,2.2,-20190,2.2,-26092,2.2,-18024,2.2,-26210,2.2,-26186,2.2,-26186,2.2,-24161,2.2,-15745,2.2,-26215,2.2,-26192,2.2,-26192,0
2.3,-17617,2.3,-19797,2.3,-19056,2.3,-26212,2.3,-15733,2.3,-17159,2.3,-18878,2.3,-26223,2.3,-19759,2.3,-17969,2.3,-19861,2.3,-18768,2.3,-18327,2.3,-16527,2.3,-19633,2.3,-19294,2.3,-20759,2.3,-24716,2.3,-22497,2.3,-22625,2.3,-19087,2.3,-19478,2.3,-24567,2.3,-23087,2.3,-23661,2.3,-20209,2.3,-26145,2.3,-17954,2.3,-26213,2.3,-26186,2.3,-26186,2.3,-24131,2.3,-15699,2.3,-26208,2.3,-26181,2.3,-26181,0
2.4,-17591,2.4,-19757,2.4,-19033,2.4,-26225,2.4,-15705,2.4,-17154,2.4,-18824,2.4,-26207,2.4,-19733,2.4,-17953,2.4,-19868,2.4,-18753,2.4,-18300,2.4,-16548,2.4,-19670,2.4,-19274,2.4,-20732,2.4,-24694,2.4,-22509,2.4,-22651,2.4,-19058,2.4,-19409,2.4,-24554,2.4,-23035,2.4,-23650,2.4,-20215,2.4,-26117,2.4,-18002,2.4,-26206,2.4,-26183,2.4,-26183,2.4,-24167,2.4,-15759,2.4,-26214,2.4,-26191,2.4,-26191,0
2.5,-17602,2.5,-19797,2.5,-19043,2.5,-26193,2.5,-15711,2.5,-17192,2.5,-18862,2.5,-26206,2.5,-19775,2.5,-17998,2.5,-19916,2.5,-18797,2.5,-18347,2.5,-16517,2.5,-19643,2.5,-19302,2.5,-20778,2.5,-24721,2.5,-22537,2.5,-22661,2.5,-19112,2.5,-19391,2.5,-24523,2.5,-23024,2.5,-23649,2.5,-20204,2.5,-26072,2.5,-18074,2.5,-26212,2.5,-26186,2.5,-26186,2.5,-24243,2.5,-15783,2.5,-26224,2.5,-26193,2.5,-26193,0
2.6,-17654,2.6,-19857,2.6,-19105,2.6,-26200,2.6,-15748,2.6,-17218,2.6,-18877,2.6,-26198,2.6,-19788,2.6,-18015,2.6,-19931,2.6,-18816,2.6,-18361,2.6,-16573,2.6,-19694,2.6,-19329,2.6,-20843,2.6,-24764,2.6,-22607,2.6,-22708,2.6,-19180,2.6,-19509,2.6,-24623,2.6,-23134,2.6,-23736,2.6,-20257,2.6,-26183,2.6,-18053,2.6,-26215,2.6,-26186,2.6,-26186,2.6,-24229,2.6,-15785,2.6,-26225,2.6,-26187,2.6,-26187,0
2.7,-17665,2.7,-19873,2.7,-19140,2.7,-26210,2.7,-15773,2.7,-17231,2.7,-18890,2.7,-26228,2.7,-19789,2.7,-17995,2.7,-19919,2.7,-18824,2.7,-18339,2.7,-16503,2.7,-19647,2.7,-19299,2.7,-20846,2.7,-24749,2.7,-22587,2.7,-22697,2.7,-19188,2.7,-19490,2.7,-24579,2.7,-23112,2.7,-23704,2.7,-20235,2.7,-26142,2.7,-18039,2.7,-26182,2.7,-26195,2.7,-26195,2.7,-24208,2.7,-15773,2.7,-26212,2.7,-26189,2.7,-26189,0
2.8,-17655,2.8,-19843,2.8,-19121,2.8,-26201,2.8,-15755,2.8,-17228,2.8,-18894,2.8,-26226,2.8,-19778,2.8,-17969,2.8,-19889,2.8,-18815,2.8,-18355,2.8,-16555,2.8,-19682,2.8,-19328,2.8,-20829,2.8,-24744,2.8,-22549,2.8,-22671,2.8,-19155,2.8,-19445,2.8,-24546,2.8,-23061,2.8,-23656,2.8,-20225,2.8,-26104,2.8,-17996,2.8,-26194,2.8,-26196,2.8,-26196,2.8,-24173,2.8,-15751,2.8,-26208,2.8,-26181,2.8,-26181,0
2.9,-17631,2.9,-19807,2.9,-19085,2.9,-26210,2.9,-15706,2.9,-17195,2.9,-18849,2.9,-26189,2.9,-19749,2.9,-17959,2.9,-19884,2.9,-18771,2.9,-18345,2.9,-16532,2.9,-19650,2.9,-19280,2.9,-20748,2.9,-24704,2.9,-22514,2.9,-22636,2.9,-19107,2.9,-19422,2.9,-24538,2.9,-23047,2.9,-23622,2.9,-20220,2.9,-26106,2.9,-17993,2.9,-26206,2.9,-26194,2.9,-26194,2.9,-24178,2.9,-15735,2.9,-26209,2.9,-26197,2.9,-26197,0
3,-17589,3,-19801,3,-19043,3,-26193,3,-15694,3,-17199,3,-18830,3,-26216,3,-19730,3,-17921,3,-19860,3,-18740,3,-18308,3,-16513,3,-19637,3,-19256,3,-20699,3,-24680,3,-22491,3,-22601,3,-19051,3,-19491,3,-24613,3,-23089,3,-23694,3,-20227,3,-26187,3,-17926,3,-26202,3,-26188,3,-26188,3,-24105,3,-15701,3,-26214,3,-26192,3,-26192,0
3.1,-17572,3.1,-19778,3.1,-19007,3.1,-26220,3.1,-15698,3.1,-17177,3.1,-18809,3.1,-26229,3.1,-19697,3.1,-17884,3.1,-19815,3.1,-18705,3.1,-18296,3.1,-16492,3.1,-19629,3.1,-19228,3.1,-20730,3.1,-24724,3.1,-22460,3.1,-22581,3.1,-19061,3.1,-19407,3.1,-24541,3.1,-23043,3.1,-23634,3.1,-20173,3.1,-26102,3.1,-17867,3.1,-26187,3.1,-26195,3.1,-26195,3.1,-24100,3.1,-15645,3.1,-26210,3.1,-26192,3.1,-26192,0
3.2,-17493,3.2,-19721,3.2,-18920,3.2,-26185,3.2,-15659,3.2,-17109,3.2,-18779,3.2,-26217,3.2,-19664,3.2,-17857,3.2,-19779,3.2,-18637,3.2,-18252,3.2,-16468,3.2,-19598,3.2,-19187,3.2,-20670,3.2,-24671,3.2,-22442,3.2,-22562,3.2,-18993,3.2,-19463,3.2,-24596,3.2,-23106,3.2,-23681,3.2,-20191,3.2,-26177,3.2,-17854,3.2,-26187,3.2,-26190,3.2,-26190,3.2,-24107,3.2,-15674,3.2,-26220,3.2,-26195,3.2,-26195,0
3.3,-17555,3.3,-19774,3.3,-18976,3.3,-26224,3.3,-15665,3.3,-17138,3.3,-18759,3.3,-26200,3.3,-19698,3.3,-17904,3.3,-19850,3.3,-18691,3.3,-18311,3.3,-16510,3.3,-19643,3.3,-19219,3.3,-20763,3.3,-24700,3.3,-22542,3.3,-22631,3.3,-19075,3.3,-19441,3.3,-24560,3.3,-23071,3.3,-23667,3.3,-20210,3.3,-26125,3.3,-17964,3.3,-26207,3.3,-26191,3.3,-26191,3.3,-24174,3.3,-15716,3.3,-26215,3.3,-26193,3.3,-26193,0
3.4,-17583,3.4,-19805,3.4,-19000,3.4,-26191,3.4,-15713,3.4,-17199,3.4,-18826,3.4,-26216,3.4,-19743,3.4,-17929,3.4,-19871,3.4,-18758,3.4,-18345,3.4,-16545,3.4,-19672,3.4,-19278,3.4,-20792,3.4,-24716,3.4,-22551,3.4,-22704,3.4,-19131,3.4,-19425,3.4,-24514,3.4,-23050,3.4,-23673,3.4,-20240,3.4,-26102,3.4,-18002,3.4,-26220,3.4,-26190,3.4,-26190,3.4,-24215,3.4,-15721,3.4,-26215,3.4,-26199,3.4,-26199,0
3.5,-17630,3.5,-19825,3.5,-19048,3.5,-26208,3.5,-15686,3.5,-17171,3.5,-18820,3.5,-26197,3.5,-19756,3.5,-17942,3.5,-19885,3.5,-18762,3.5,-18343,3.5,-16552,3.5,-19684,3.5,-19286,3.5,-20768,3.5,-24737,3.5,-22567,3.5,-22678,3.5,-19084,3.5,-19423,3.5,-24567,3.5,-23063,3.5,-23675,3.5,-20191,3.5,-26121,3.5,-18000,3.5,-26209,3.5,-26189,3.5,-26189,3.5,-24169,3.5,-15715,3.5,-26200,3.5,-26184,3.5,-26184,0
3.6,-17646,3.6,-19831,3.6,-19071,3.6,-26214,3.6,-15747,3.6,-17217,3.6,-18861,3.6,-26226,3.6,-19754,3.6,-17909,3.6,-19843,3.6,-18750,3.6,-18348,3.6,-16512,3.6,-19642,3.6,-19272,3.6,-20765,3.6,-24738,3.6,-22562,3.6,-22659,3.6,-19107,3.6,-19403,3.6,-24518,3.6,-23013,3.6,-23612,3.6,-20178,3.6,-26076,3.6,-17971,3.6,-26191,3.6,-26186,3.6,-26186,3.6,-24182,3.6,-15713,3.6,-26215,3.6,-26187,3.6,-26187,0
3.7,-17633,3.7,-19844,3.7,-19059,3.7,-26221,3.7,-15701,3.7,-17185,3.7,-18835,3.7,-26196,3.7,-19749,3.7,-17927,3.7,-19847,3.7,-18747,3.7,-18327,3.7,-16496,3.7,-19639,3.7,-19247,3.7,-20687,3.7,-24679,3.7,-22483,3.7,-22606,3.7,-19048,3.7,-19488,3.7,-24615,3.7,-23114,3.7,-23728,3.7,-20245,3.7,-26151,3.7,-17953,3.7,-26207,3.7,-26190,3.7,-26190,3.7,-24203,3.7,-15674,3.7,-26203,3.7,-26182,3.7,-26182,0
3.8,-17573,3.8,-19781,3.8,-18988,3.8,-26195,3.8,-15687,3.8,-17172,3.8,-18807,3.8,-26202,3.8,-19682,3.8,-17892,3.8,-19825,3.8,-18705,3.8,-18312,3.8,-16491,3.8,-19637,3.8,-19223,3.8,-20725,3.8,-24699,3.8,-22446,3.8,-22592,3.8,-19043,3.8,-19453,3.8,-24566,3.8,-23045,3.8,-23654,3.8,-20205,3.8,-26142,3.8,-17914,3.8,-26208,3.8,-26193,3.8,-26193,3.8,-24155,3.8,-15653,3.8,-26203,3.8,-26184,3.8,-26184,0
3.9,-17537,3.9,-19769,3.9,-18995,3.9,-26197,3.9,-15668,3.9,-17162,3.9,-18759,3.9,-26215,3.9,-19666,3.9,-17855,3.9,-19788,3.9,-18669,3.9,-18238,3.9,-16452,3.9,-19594,3.9,-19203,3.9,-20674,3.9,-24690,3.9,-22469,3.9,-22563,3.9,-18981,3.9,-19371,3.9,-24519,3.9,-23010,3.9,-23595,3.9,-20161,3.9,-26080,3.9,-17875,3.9,-26214,3.9,-26189,3.9,-26189,3.9,-24120,3.9,-15637,3.9,-26215,3.9,-26182,3.9,-26182,0
4,-17514,4,-19725,4,-18935,4,-26204,4,-15682,4,-17147,4,-18752,4,-26224,4,-19645,4,-17846,4,-19795,4,-18626,4,-18244,4,-16449,4,-19594,4,-19176,4,-20719,4,-24696,4,-22474,4,-22585,4,-19030,4,-19355,4,-24517,4,-23006,4,-23620,4,-20142,4,-26107,4,-17842,4,-26197,4,-26189,4,-26189,4,-24120,4,-15659,4,-26218,4,-26189,4,-26189,0
4.1,-17558,4.1,-19780,4.1,-18965,4.1,-26188,4.1,-15706,4.1,-17186,4.1,-18788,4.1,-26228,4.1,-19711,4.1,-17892,4.1,-19836,4.1,-18707,4.1,-18293,4.1,-16428,4.1,-19614,4.1,-19201,4.1,-20729,4.1,-24726,4.1,-22558,4.1,-22640,4.1,-19075,4.1,-19462,4.1,-24578,4.1,-23085,4.1,-23672,4.1,-20201,4.1,-26138,4.1,-17951,4.1,-26203,4.1,-26183,4.1,-26183,4.1,-24173,4.1,-15716,4.1,-26219,4.1,-26187,4.1,-26187,0
4.2,-17631,4.2,-19832,4.2,-19071,4.2,-26219,4.2,-15734,4.2,-17230,4.2,-18829,4.2,-26213,4.2,-19730,4.2,-17945,4.2,-19893,4.2,-18754,4.2,-18317,4.2,-16514,4.2,-19685,4.2,-19264,4.2,-20749,4.2,-24732,4.2,-22545,4.2,-22667,4.2,-19099,4.2,-19490,4.2,-24565,4.2,-23091,4.2,-23709,4.2,-20229,4.2,-26129,4.2,-18041,4.2,-26224,4.2,-26195,4.2,-26195,4.2,-24250,4.2,-15734,4.2,-26211,4.2,-26188,4.2,-26188,0
4.3,-17654,4.3,-19867,4.3,-19057,4.3,-26197,4.3,-15743,4.3,-17235,4.3,-18837,4.3,-26211,4.3,-19804,4.3,-17988,4.3,-19940,4.3,-18793,4.3,-18327,4.3,-16499,4.3,-19660,4.3,-19269,4.3,-20790,4.3,-24710,4.3,-22527,4.3,-22699,4.3,-19118,4.3,-19535,4.3,-24622,4.3,-23109,4.3,-23696,4.3,-20242,4.3,-26173,4.3,-18009,4.3,-26210,4.3,-26193,4.3,-26193,4.3,-24175,4.3,-15729,4.3,-26210,4.3,-26197,4.3,-26197,0
4.4,-17654,4.4,-19845,4.4,-19084,4.4,-26204,4.4,-15749,4.4,-17237,4.4,-18840,4.4,-26209,4.4,-19785,4.4,-17980,4.4,-19904,4.4,-18787,4.4,-18333,4.4,-16532,4.4,-19687,4.4,-19299,4.4,-20755,4.4,-24720,4.4,-22535,4.4,-22699,4.4,-19089,4.4,-19488,4.4,-24553,4.4,-23062,4.4,-23681,4.4,-20198,4.4,-26111,4.4,-18020,4.4,-26211,4.4,-26194,4.4,-26194,4.4,-24182,4.4,-15766,4.4,-26215,4.4,-26195,4.4,-26195,0
4.5,-17650,4.5,-19834,4.5,-19079,4.5,-26217,4.5,-15752,4.5,-17242,4.5,-18834,4.5,-26209,4.5,-19767,4.5,-17965,4.5,-19872,4.5,-18760,4.5,-18288,4.5,-16482,4.5,-19616,4.5,-19251,4.5,-20730,4.5,-24712,4.5,-22511,4.5,-22615,4.5,-19073,4.5,-19547,4.5,-24587,4.5,-23104,4.5,-23695,4.5,-20239,4.5,-26132,4.5,-17959,4.5,-26198,4.5,-26191,4.5,-26191,4.5,-24137,4.5,-15729,4.5,-26212,4.5,-26193,4.5,-26193,0
4.6,-17631,4.6,-19835,4.6,-19060,4.6,-26206,4.6,-15712,4.6,-17225,4.6,-18820,4.6,-26204,4.6,-19745,4.6,-17932,4.6,-19857,4.6,-18755,4.6,-18351,4.6,-16525,4.6,-19666,4.6,-19261,4.6,-20680,4.6,-24677,4.6,-22481,4.6,-22573,4.6,-19024,4.6,-19465,4.6,-24586,4.6,-23080,4.6,-23688,4.6,-20177,4.6,-26155,4.6,-17923,4.6,-26198,4.6,-26190,4.6,-26190,4.6,-24115,4.6,-15704,4.6,-26211,4.6,-26190,4.6,-26190,0
4.7,-17587,4.7,-19825,4.7,-19032,4.7,-26219,4.7,-15726,4.7,-17216,4.7,-18808,4.7,-26226,4.7,-19700,4.7,-17884,4.7,-19788,4.7,-18667,4.7,-18273,4.7,-16454,4.7,-19600,4.7,-19197,4.7,-20681,4.7,-24663,4.7,-22438,4.7,-22577,4.7,-19003,4.7,-19429,4.7,-24545,4.7,-23024,4.7,-23647,4.7,-20167,4.7,-26144,4.7,-17915,4.7,-26219,4.7,-26204,4.7,-26204,4.7,-24145,4.7,-15659,4.7,-26206,4.7,-26197,4.7,-26197,0
4.8,-17536,4.8,-19745,4.8,-18991,4.8,-26216,4.8,-15685,4.8,-17171,4.8,-18772,4.8,-26219,4.8,-19685,4.8,-17862,4.8,-19791,4.8,-18630,4.8,-18247,4.8,-16430,4.8,-19580,4.8,-19208,4.8,-20655,4.8,-24682,4.8,-22438,4.8,-22561,4.8,-18963,4.8,-19436,4.8,-24587,4.8,-23071,4.8,-23643,4.8,-20165,4.8,-26157,4.8,-17866,4.8,-26207,4.8,-26189,4.8,-26189,4.8,-24145,4.8,-15649,4.8,-26211,4.8,-26194,4.8,-26194,0
4.9,-17567,4.9,-19780,4.9,-19005,4.9,-26229,4.9,-15698,4.9,-17166,4.9,-18773,4.9,-26201,4.9,-19704,4.9,-17870,4.9,-19807,4.9,-18692,4.9,-18263,4.9,-16470,4.9,-19643,4.9,-19231,4.9,-20738,4.9,-24686,4.9,-22513,4.9,-22646,4.9,-19026,4.9,-19395,4.9,-24559,4.9,-23058,4.9,-23652,4.9,-20161,4.9,-26145,4.9,-17939,4.9,-26187,4.9,-26195,4.9,-26195,4.9,-24179,4.9,-15715,4.9,-26205,4.9,-26193,4.9,-26193,0
5,-17624,5,-19832,5,-19049,5,-26199,5,-15730,5,-17214,5,-18784,5,-26201,5,-19765,5,-17954,5,-19891,5,-18764,5,-18326,5,-16546,5,-19673,5,-19229,5,-20728,5,-24680,5,-22530,5,-22666,5,-19073,5,-19471,5,-24579,5,-23076,5,-23686,5,-20203,5,-26147,5,-18020,5,-26209,5,-26188,5,-26188,5,-24190,5,-15731,5,-26221,5,-26195,5,-26195,0
5.1,-17667,5.1,-19877,5.1,-19081,5.1,-26208,5.1,-15773,5.1,-17258,5.1,-18860,5.1,-26225,5.1,-19798,5.1,-18007,5.1,-19926,5.1,-18785,5.1,-18363,5.1,-16550,5.1,-19681,5.1,-19271,5.1,-20742,5.1,-24708,5.1,-22522,5.1,-22658,5.1,-19078,5.1,-19525,5.1,-24606,5.1,-23132,5.1,-23736,5.1,-20247,5.1,-26172,5.1,-18021,5.1,-26209,5.1,-26193,5.1,-26193,5.1,-24215,5.1,-15754,5.1,-26207,5.1,-26193,5.1,-26193,0
5.2,-17668,5.2,-19877,5.2,-19085,5.2,-26200,5.2,-15750,5.2,-17254,5.2,-18849,5.2,-26209,5.2,-19794,5.2,-17988,5.2,-19898,5.2,-18787,5.2,-18356,5.2,-16571,5.2,-19692,5.2,-19274,5.2,-20777,5.2,-24699,5.2,-22526,5.2,-22691,5.2,-19101,5.2,-19528,5.2,-24577,5.2,-23077,5.2,-23694,5.2,-20248,5.2,-26151,5.2,-18021,5.2,-26218,5.2,-26187,5.2,-26187,5.2,-24184,5.2,-15755,5.2,-26216,5.2,-26194,5.2,-26194,0
5.3,-17664,5.3,-19861,5.3,-19091,5.3,-26208,5.3,-15765,5.3,-17252,5.3,-18865,5.3,-26226,5.3,-19791,5.3,-17977,5.3,-19884,5.3,-18785,5.3,-18351,5.3,-16571,5.3,-19682,5.3,-19248,5.3,-20761,5.3,-24719,5.3,-22509,5.3,-22662,5.3,-19101,5.3,-19554,5.3,-24605,5.3,-23105,5.3,-23691,5.3,-20261,5.3,-26157,5.3,-18004,5.3,-26213,5.3,-26191,5.3,-26191,5.3,-24167,5.3,-15743,5.3,-26221,5.3,-26184,5.3,-26184,0
5.4,-17620,5.4,-19815,5.4,-19062,5.4,-26189,5.4,-15719,5.4,-17191,5.4,-18788,5.4,-26197,5.4,-19750,5.4,-17954,5.4,-19874,5.4,-18750,5.4,-18354,5.4,-16529,5.4,-19662,5.4,-19271,5.4,-20785,5.4,-24723,5.4,-22505,5.4,-22629,5.4,-19091,5.4,-19426,5.4,-24585,5.4,-23065,5.4,-23671,5.4,-20178,5.4,-26150,5.4,-17979,5.4,-26221,5.4,-26191,5.4,-26191,5.4,-24179,5.4,-15732,5.4,-26218,5.4,-26197,5.4,-26197,0
5.5,-17642,5.5,-19816,5.5,-19023,5.5,-26223,5.5,-15691,5.5,-17195,5.5,-18806,5.5,-26197,5.5,-19695,5.5,-17889,5.5,-19786,5.5,-18691,5.5,-18312,5.5,-16519,5.5,-19633,5.5,-19234,5.5,-20690,5.5,-24662,5.5,-22471,5.5,-22587,5.5,-19000,5.5,-19452,5.5,-24549,5.5,-23045,5.5,-23651,5.5,-20205,5.5,-26126,5.5,-17913,5.5,-26215,5.5,-26183,5.5,-26183,5.5,-24129,5.5,-15678,5.5,-26202,5.5,-26185,5.5,-26185,0
5.6,-17573,5.6,-19781,5.6,-19007,5.6,-26224,5.6,-15655,5.6,-17141,5.6,-18749,5.6,-26187,5.6,-19709,5.6,-17890,5.6,-19816,5.6,-18673,5.6,-18306,5.6,-16570,5.6,-19641,5.6,-19201,5.6,-20684,5.6,-24661,5.6,-22450,5.6,-22561,5.6,-18981,5.6,-19458,5.6,-24542,5.6,-23025,5.6,-23634,5.6,-20182,5.6,-26131,5.6,-17859,5.6,-26210,5.6,-26189,5.6,-26189,5.6,-24123,5.6,-15630,5.6,-26214,5.6,-26182,5.6,-26182,0
5.7,-17513,5.7,-19719,5.7,-18940,5.7,-26199,5.7,-15636,5.7,-17127,5.7,-18710,5.7,-26192,5.7,-19655,5.7,-17858,5.7,-19788,5.7,-18642,5.7,-18286,5.7,-16551,5.7,-19632,5.7,-19182,5.7,-20735,5.7,-24705,5.7,-22468,5.7,-22628,5.7,-19024,5.7,-19433,5.7,-24556,5.7,-23030,5.7,-23603,5.7,-20194,5.7,-26098,5.7,-17894,5.7,-26221,5.7,-26182,5.7,-26182,5.7,-24152,5.7,-15675,5.7,-26223,5.7,-26196,5.7,-26196,0
5.8,-17616,5.8,-19803,5.8,-19004,5.8,-26221,5.8,-15699,5.8,-17193,5.8,-18772,5.8,-26203,5.8,-19703,5.8,-17905,5.8,-19848,5.8,-18701,5.8,-18319,5.8,-16539,5.8,-19662,5.8,-19262,5.8,-20753,5.8,-24694,5.8,-22511,5.8,-22631,5.8,-19067,5.8,-19448,5.8,-24545,5.8,-23059,5.8,-23644,5.8,-20189,5.8,-26125,5.8,-17971,5.8,-26205,5.8,-26194,5.8,-26194,5.8,-24148,5.8,-15708,5.8,-26220,5.8,-26191,5.8,-26191,0
5.9,-17631,5.9,-19853,5.9,-19053,5.9,-26201,5.9,-15722,5.9,-17201,5.9,-18797,5.9,-26216,5.9,-19775,5.9,-17944,5.9,-19880,5.9,-18750,5.9,-18325,5.9,-16532,5.9,-19660,5.9,-19253,5.9,-20751,5.9,-24704,5.9,-22542,5.9,-22662,5.9,-19044,5.9,-19515,5.9,-24594,5.9,-23095,5.9,-23721,5.9,-20208,5.9,-26152,5.9,-17991,5.9,-26218,5.9,-26195,5.9,-26195,5.9,-24181,5.9,-15740,5.9,-26225,5.9,-26195,5.9,-26195,0
6,-17615,6,-19821,6,-19036,6,-26195,6,-15731,6,-17217,6,-18815,6,-26218,6,-19769,6,-17938,6,-19855,6,-18765,6,-18353,6,-16537,6,-19669,6,-19248,6,-20798,6,-24748,6,-22567,6,-22672,6,-19098,6,-19538,6,-24595,6,-23117,6,-23733,6,-20212,6,-26157,6,-17982,6,-26224,6,-26193,6,-26193,6,-24169,6,-15714,6,-26201,6,-26191,6,-26191,0
6.1,-17624,6.1,-19825,6.1,-19054,6.1,-26207,6.1,-15719,6.1,-17201,6.1,-18799,6.1,-26210,6.1,-19764,6.1,-17945,6.1,-19884,6.1,-18742,6.1,-18331,6.1,-16550,6.1,-19667,6.1,-19231,6.1,-20720,6.1,-24710,6.1,-22509,6.1,-22657,6.1,-19051,6.1,-19438,6.1,-24502,6.1,-23005,6.1,-23613,6.1,-20210,6.1,-26086,6.1,-17969,6.1,-26208,6.1,-26190,6.1,-26190,6.1,-24151,6.1,-15694,6.1,-26213,6.1,-26195,6.1,-26195,0
6.2,-17597,6.2,-19816,6.2,-19029,6.2,-26207,6.2,-15715,6.2,-17210,6.2,-18797,6.2,-26219,6.2,-19752,6.2,-17949,6.2,-19863,6.2,-18722,6.2,-18276,6.2,-16451,6.2,-19597,6.2,-19218,6.2,-20669,6.2,-24698,6.2,-22479,6.2,-22589,6.2,-19013,6.2,-19507,6.2,-24590,6.2,-23057,6.2,-23672,6.2,-20232,6.2,-26183,6.2,-17916,6.2,-26213,6.2,-26185,6.2,-26185,6.2,-24151,6.2,-15673,6.2,-26198,6.2,-26188,6.2,-26188,0
6.3,-17551,6.3,-19769,6.3,-18953,6.3,-26199,6.3,-15691,6.3,-17175,6.3,-18768,6.3,-26220,6.3,-19691,6.3,-17877,6.3,-19795,6.3,-18676,6.3,-18298,6.3,-16551,6.3,-19654,6.3,-19190,6.3,-20718,6.3,-24677,6.3,-22433,6.3,-22538,6.3,-18991,6.3,-19357,6.3,-24467,6.3,-22968,6.3,-23547,6.3,-20187,6.3,-26051,6.3,-17864,6.3,-26213,6.3,-26194,6.3,-26194,6.3,-24130,6.3,-15659,6.3,-26214,6.3,-26186,6.3,-26186,0
6.4,-17519,6.4,-19749,6.4,-18939,6.4,-26218,6.4,-15640,6.4,-17126,6.4,-18716,6.4,-26217,6.4,-19670,6.4,-17877,6.4,-19806,6.4,-18633,6.4,-18288,6.4,-16535,6.4,-19617,6.4,-19164,6.4,-20671,6.4,-24650,6.4,-22392,6.4,-22534,6.4,-18949,6.4,-19510,6.4,-24602,6.4,-23053,6.4,-23677,6.4,-20196,6.4,-26196,6.4,-17787,6.4,-26196,6.4,-26186,6.4,-26186,6.4,-24067,6.4,-15607,6.4,-26214,6.4,-26195,6.4,-26195,0
6.5,-17424,6.5,-19681,6.5,-18874,6.5,-26193,6.5,-15604,6.5,-17090,6.5,-18677,6.5,-26219,6.5,-19602,6.5,-17797,6.5,-19747,6.5,-18564,6.5,-18247,6.5,-16491,6.5,-19576,6.5,-19115,6.5,-20603,6.5,-24686,6.5,-22387,6.5,-22523,6.5,-18908,6.5,-19417,6.5,-24559,6.5,-23030,6.5,-23655,6.5,-20125,6.5,-26155,6.5,-17793,6.5,-26213,6.5,-26191,6.5,-26191,6.5,-24107,6.5,-15570,6.5,-26209,6.5,-26196,6.5,-26196,0
6.6,-17469,6.6,-19726,6.6,-18883,6.6,-26217,6.6,-15602,6.6,-17081,6.6,-18679,6.6,-26210,6.6,-19677,6.6,-17851,6.6,-19813,6.6,-18627,6.6,-18258,6.6,-16472,6.6,-19615,6.6,-19151,6.6,-20708,6.6,-24714,6.6,-22475,6.6,-22601,6.6,-18995,6.6,-19459,6.6,-24577,6.6,-23041,6.6,-23663,6.6,-20178,6.6,-26118,6.6,-17898,6.6,-26224,6.6,-26187,6.6,-26187,6.6,-24167,6.6,-15636,6.6,-26206,6.6,-26194,6.6,-26194,0
6.7,-17519,6.7,-19749,6.7,-18898,6.7,-26206,6.7,-15612,6.7,-17133,6.7,-18654,6.7,-26199,6.7,-19697,6.7,-17887,6.7,-19846,6.7,-18668,6.7,-18252,6.7,-16422,6.7,-19593,6.7,-19196,6.7,-20669,6.7,-24721,6.7,-22493,6.7,-22609,6.7,-18978,6.7,-19457,6.7,-24553,6.7,-23044,6.7,-23684,6.7,-20197,6.7,-26122,6.7,-17903,6.7,-26214,6.7,-26199,6.7,-26199,6.7,-24176,6.7,-15661,6.7,-26215,6.7,-26192,6.7,-26192,0
6.8,-17574,6.8,-19806,6.8,-18969,6.8,-26230,6.8,-15634,6.8,-17140,6.8,-18710,6.8,-26206,6.8,-19698,6.8,-17917,6.8,-19848,6.8,-18686,6.8,-18279,6.8,-16440,6.8,-19585,6.8,-19179,6.8,-20718,6.8,-24717,6.8,-22519,6.8,-22637,6.8,-19002,6.8,-19436,6.8,-24570,6.8,-23079,6.8,-23669,6.8,-20189,6.8,-26143,6.8,-17893,6.8,-26206,6.8,-26186,6.8,-26186,6.8,-24177,6.8,-15669,6.8,-26218,6.8,-26194,6.8,-26194,0
6.9,-17539,6.9,-19757,6.9,-18949,6.9,-26206,6.9,-15632,6.9,-17137,6.9,-18700,6.9,-26200,6.9,-19716,6.9,-17915,6.9,-19851,6.9,-18658,6.9,-18317,6.9,-16530,6.9,-19640,6.9,-19205,6.9,-20683,6.9,-24675,6.9,-22468,6.9,-22604,6.9,-19025,6.9,-19375,6.9,-24538,6.9,-23027,6.9,-23655,6.9,-20143,6.9,-26117,6.9,-17867,6.9,-26198,6.9,-26181,6.9,-26181,6.9,-24139,6.9,-15646,6.9,-26217,6.9,-26196,6.9,-26196,0
7,-17514,7,-19765,7,-18939,7,-26216,7,-15611,7,-17122,7,-18702,7,-26202,7,-19682,7,-17866,7,-19799,7,-18627,7,-18275,7,-16486,7,-19636,7,-19195,7,-20677,7,-24703,7,-22468,7,-22570,7,-18972,7,-19351,7,-24498,7,-22990,7,-23609,7,-20155,7,-26055,7,-17805,7,-26197,7,-26190,7,-26190,7,-24077,7,-15619,7,-26211,7,-26193,7,-26193,0
7.1,-17484,7.1,-19716,7.1,-18896,7.1,-26199,7.1,-15590,7.1,-17079,7.1,-18698,7.1,-26213,7.1,-19674,7.1,-17855,7.1,-19780,7.1,-18619,7.1,-18261,7.1,-16456,7.1,-19585,7.1,-19142,7.1,-20725,7.1,-24723,7.1,-22482,7.1,-22598,7.1,-18994,7.1,-19418,7.1,-24551,7.1,-23020,7.1,-23656,7.1,-20185,7.1,-26139,7.1,-17777,7.1,-26202,7.1,-26196,7.1,-26196,7.1,-24059,7.1,-15587,7.1,-26216,7.1,-26195,7.1,-26195,0
7.2,-17442,7.2,-19681,7.2,-18859,7.2,-26229,7.2,-15557,7.2,-17047,7.2,-18649,7.2,-26208,7.2,-19626,7.2,-17798,7.2,-19738,7.2,-18557,7.2,-18234,7.2,-16472,7.2,-19591,7.2,-19122,7.2,-20668,7.2,-24679,7.2,-22406,7.2,-22543,7.2,-18936,7.2,-19387,7.2,-24537,7.2,-22999,7.2,-23619,7.2,-20139,7.2,-26105,7.2,-17759,7.2,-26220,7.2,-26188,7.2,-26188,7.2,-24100,7.2,-15567,7.2,-26215,7.2,-26186,7.2,-26186,0
7.3,-17380,7.3,-19630,7.3,-18799,7.3,-26210,7.3,-15546,7.3,-17050,7.3,-18650,7.3,-26211,7.3,-19583,7.3,-17753,7.3,-19701,7.3,-18510,7.3,-18194,7.3,-16439,7.3,-19544,7.3,-19070,7.3,-20613,7.3,-24666,7.3,-22392,7.3,-22518,7.3,-18880,7.3,-19347,7.3,-24541,7.3,-23018,7.3,-23606,7.3,-20110,7.3,-26146,7.3,-17711,7.3,-26215,7.3,-26191,7.3,-26191,7.3,-24109,7.3,-15544,7.3,-26228,7.3,-26183,7.3,-26183,0
7.4,-17375,7.4,-19649,7.4,-18788,7.4,-26205,7.4,-15504,7.4,-17014,7.4,-18613,7.4,-26185,7.4,-19626,7.4,-17785,7.4,-19740,7.4,-18557,7.4,-18193,7.4,-16427,7.4,-19567,7.4,-19096,7.4,-20653,7.4,-24698,7.4,-22426,7.4,-22540,7.4,-18939,7.4,-19327,7.4,-24519,7.4,-23022,7.4,-23599,7.4,-20139,7.4,-26118,7.4,-17783,7.4,-26207,7.4,-26190,7.4,-26190,7.4,-24132,7.4,-15591,7.4,-26208,7.4,-26175,7.4,-26175,0
7.5,-17488,7.5,-19732,7.5,-18874,7.5,-26233,7.5,-15592,7.5,-17071,7.5,-18635,7.5,-26215,7.5,-19645,7.5,-17842,7.5,-19800,7.5,-18586,7.5,-18267,7.5,-16493,7.5,-19607,7.5,-19126,7.5,-20729,7.5,-24734,7.5,-22504,7.5,-22642,7.5,-19016,7.5,-19441,7.5,-24599,7.5,-23085,7.5,-23693,7.5,-20174,7.5,-26149,7.5,-17845,7.5,-26216,7.5,-26191,7.5,-26191,7.5,-24164,7.5,-15605,7.5,-26211,7.5,-26191,7.5,-26191,0
7.6,-17486,7.6,-19718,7.6,-18886,7.6,-26224,7.6,-15587,7.6,-17102,7.6,-18662,7.6,-26201,7.6,-19662,7.6,-17857,7.6,-19811,7.6,-18620,7.6,-18276,7.6,-16517,7.6,-19616,7.6,-19150,7.6,-20733,7.6,-24723,7.6,-22525,7.6,-22630,7.6,-18996,7.6,-19450,7.6,-24584,7.6,-23096,7.6,-23649,7.6,-20184,7.6,-26178,7.6,-17855,7.6,-26214,7.6,-26188,7.6,-26188,7.6,-24164,7.6,-15617,7.6,-26207,7.6,-26197,7.6,-26197,0
7.7,-17455,7.7,-19717,7.7,-18876,7.7,-26186,7.7,-15517,7.7,-17008,7.7,-18604,7.7,-26155,7.7,-19658,7.7,-17851,7.7,-19804,7.7,-18604,7.7,-18257,7.7,-16477,7.7,-19605,7.7,-19136,7.7,-20609,7.7,-24690,7.7,-22488,7.7,-22589,7.7,-18955,7.7,-19359,7.7,-24536,7.7,-23046,7.7,-23629,7.7,-20139,7.7,-26118,7.7,-17818,7.7,-26212,7.7,-26190,7.7,-26190,7.7,-24137,7.7,-15599,7.7,-26216,7.7,-26171,7.7,-26171,0
7.8,-17475,7.8,-19723,7.8,-18880,7.8,-26216,7.8,-15605,7.8,-17099,7.8,-18656,7.8,-26211,7.8,-19633,7.8,-17811,7.8,-19755,7.8,-18545,7.8,-18279,7.8,-16520,7.8,-19622,7.8,-19150,7.8,-20629,7.8,-24689,7.8,-22471,7.8,-22557,7.8,-18919,7.8,-19457,7.8,-24593,7.8,-23061,7.8,-23643,7.8,-20192,7.8,-26174,7.8,-17810,7.8,-26215,7.8,-26194,7.8,-26194,7.8,-24111,7.8,-15609,7.8,-26204,7.8,-26190,7.8,-26190,0
7.9,-17432,7.9,-19700,7.9,-18845,7.9,-26194,7.9,-15573,7.9,-17067,7.9,-18664,7.9,-26201,7.9,-19635,7.9,-17828,7.9,-19754,7.9,-18583,7.9,-18274,7.9,-16484,7.9,-19599,7.9,-19160,7.9,-20609,7.9,-24675,7.9,-22397,7.9,-22552,7.9,-18915,7.9,-19404,7.9,-24546,7.9,-23037,7.9,-23618,7.9,-20164,7.9,-26134,7.9,-17781,7.9,-26218,7.9,-26193,7.9,-26193,7.9,-24117,7.9,-15554,7.9,-26204,7.9,-26179,7.9,-26179,0
8,-17415,8,-19668,8,-18818,8,-26204,8,-15543,8,-17051,8,-18614,8,-26208,8,-19614,8,-17813,8,-19743,8,-18521,8,-18214,8,-16448,8,-19569,8,-19070,8,-20612,8,-24680,8,-22405,8,-22538,8,-18902,8,-19406,8,-24583,8,-23065,8,-23647,8,-20122,8,-26136,8,-17722,8,-26206,8,-26180,8,-26180,8,-24078,8,-15546,8,-26213,8,-26192,8,-26192,0
8.1,-17376,8.1,-19636,8.1,-18784,8.1,-26212,8.1,-15542,8.1,-17059,8.1,-18624,8.1,-26225,8.1,-19564,8.1,-17751,8.1,-19697,8.1,-18472,8.1,-18187,8.1,-16403,8.1,-19527,8.1,-19078,8.1,-20529,8.1,-24648,8.1,-22348,8.1,-22484,8.1,-18835,8.1,-19349,8.1,-24548,8.1,-23014,8.1,-23618,8.1,-20114,8.1,-26163,8.1,-17684,8.1,-26202,8.1,-26193,8.1,-26193,8.1,-24050,8.1,-15570,8.1,-26217,8.1,-26184,8.1,-26184,0
8.2,-17378,8.2,-19638,8.2,-18783,8.2,-26201,8.2,-15567,8.2,-17044,8.2,-18594,8.2,-26200,8.2,-19634,8.2,-17806,8.2,-19746,8.2,-18529,8.2,-18215,8.2,-16419,8.2,-19571,8.2,-19113,8.2,-20647,8.2,-24714,8.2,-22458,8.2,-22607,8.2,-18945,8.2,-19331,8.2,-24563,8.2,-23021,8.2,-23591,8.2,-20108,8.2,-26150,8.2,-17778,8.2,-26206,8.2,-26192,8.2,-26192,8.2,-24123,8.2,-15625,8.2,-26225,8.2,-26192,8.2,-26192,0
8.3,-17467,8.3,-19705,8.3,-18854,8.3,-26221,8.3,-15594,8.3,-17110,8.3,-18662,8.3,-26202,8.3,-19657,8.3,-17857,8.3,-19813,8.3,-18598,8.3,-18253,8.3,-16425,8.3,-19581,8.3,-19135,8.3,-20697,8.3,-24696,8.3,-22509,8.3,-22660,8.3,-18979,8.3,-19456,8.3,-24585,8.3,-23090,8.3,-23678,8.3,-20188,8.3,-26138,8.3,-17845,8.3,-26217,8.3,-26186,8.3,-26186,8.3,-24177,8.3,-15634,8.3,-26218,8.3,-26195,8.3,-26195,0
8.4,-17478,8.4,-19733,8.4,-18892,8.4,-26204,8.4,-15607,8.4,-17120,8.4,-18691,8.4,-26198,8.4,-19651,8.4,-17877,8.4,-19813,8.4,-18610,8.4,-18276,8.4,-16453,8.4,-19627,8.4,-19177,8.4,-20737,8.4,-24722,8.4,-22535,8.4,-22683,8.4,-19028,8.4,-19461,8.4,-24545,8.4,-23083,8.4,-23658,8.4,-20181,8.4,-26124,8.4,-17832,8.4,-26200,8.4,-26194,8.4,-26194,8.4,-24129,8.4,-15644,8.4,-26213,8.4,-26189,8.4,-26189,0
8.5,-17509,8.5,-19738,8.5,-18901,8.5,-26213,8.5,-15639,8.5,-17167,8.5,-18685,8.5,-26206,8.5,-19698,8.5,-17894,8.5,-19825,8.5,-18646,8.5,-18266,8.5,-16428,8.5,-19586,8.5,-19157,8.5,-20699,8.5,-24707,8.5,-22463,8.5,-22629,8.5,-18970,8.5,-19389,8.5,-24521,8.5,-23046,8.5,-23652,8.5,-20165,8.5,-26122,8.5,-17855,8.5,-26195,8.5,-26192,8.5,-26192,8.5,-24146,8.5,-15638,8.5,-26212,8.5,-26187,8.5,-26187,0
8.6,-17489,8.6,-19745,8.6,-18882,8.6,-26197,8.6,-15601,8.6,-17103,8.6,-18680,8.6,-26200,8.6,-19693,8.6,-17887,8.6,-19823,8.6,-18662,8.6,-18276,8.6,-16461,8.6,-19592,8.6,-19155,8.6,-20661,8.6,-24664,8.6,-22477,8.6,-22605,8.6,-18968,8.6,-19393,8.6,-24527,8.6,-23046,8.6,-23604,8.6,-20139,8.6,-26129,8.6,-17843,8.6,-26207,8.6,-26190,8.6,-26190,8.6,-24137,8.6,-15650,8.6,-26210,8.6,-26194,8.6,-26194,0
8.7,-17486,8.7,-19721,8.7,-18886,8.7,-26218,8.7,-15585,8.7,-17078,8.7,-18677,8.7,-26190,8.7,-19635,8.7,-17843,8.7,-19763,8.7,-18579,8.7,-18283,8.7,-16464,8.7,-19590,8.7,-19160,8.7,-20732,8.7,-24697,8.7,-22466,8.7,-22596,8.7,-19004,8.7,-19397,8.7,-24544,8.7,-23063,8.7,-23628,8.7,-20150,8.7,-26147,8.7,-17811,8.7,-26213,8.7,-26188,8.7,-26188,8.7,-24126,8.7,-15609,8.7,-26212,8.7,-26187,8.7,-26187,0
8.8,-17421,8.8,-19691,8.8,-18842,8.8,-26195,8.8,-15629,8.8,-17106,8.8,-18696,8.8,-26213,8.8,-19631,8.8,-17820,8.8,-19748,8.8,-18550,8.8,-18261,8.8,-16504,8.8,-19600,8.8,-19147,8.8,-20597,8.8,-24666,8.8,-22392,8.8,-22531,8.8,-18913,8.8,-19457,8.8,-24583,8.8,-23062,8.8,-23637,8.8,-20168,8.8,-26163,8.8,-17785,8.8,-26220,8.8,-26190,8.8,-26190,8.8,-24099,8.8,-15607,8.8,-26226,8.8,-26188,8.8,-26188,0
8.9,-17387,8.9,-19645,8.9,-18819,8.9,-26193,8.9,-15575,8.9,-17081,8.9,-18654,8.9,-26211,8.9,-19624,8.9,-17809,8.9,-19740,8.9,-18532,8.9,-18254,8.9,-16495,8.9,-19588,8.9,-19111,8.9,-20570,8.9,-24685,8.9,-22406,8.9,-22522,8.9,-18856,8.9,-19292,8.9,-24529,8.9,-22979,8.9,-23577,8.9,-20068,8.9,-26143,8.9,-17725,8.9,-26212,8.9,-26192,8.9,-26192,8.9,-24107,8.9,-15565,8.9,-26200,8.9,-26199,8.9,-26199,0
9,-17395,9,-19656,9,-18820,9,-26197,9,-15605,9,-17101,9,-18634,9,-26221,9,-19615,9,-17826,9,-19753,9,-18582,9,-18247,9,-16395,9,-19539,9,-19138,9,-20683,9,-24708,9,-22489,9,-22607,9,-18961,9,-19477,9,-24564,9,-23066,9,-23651,9,-20167,9,-26133,9,-17840,9,-26219,9,-26191,9,-26191,9,-24172,9,-15650,9,-26220,9,-26189,9,-26189,0
9.1,-17508,9.1,-19723,9.1,-18910,9.1,-26223,9.1,-15666,9.1,-17171,9.1,-18721,9.1,-26234,9.1,-19679,9.1,-17875,9.1,-19825,9.1,-18621,9.1,-18316,9.1,-16534,9.1,-19644,9.1,-19198,9.1,-20677,9.1,-24699,9.1,-22505,9.1,-22636,9.1,-18998,9.1,-19512,9.1,-24630,9.1,-23121,9.1,-23707,9.1,-20209,9.1,-26187,9.1,-17903,9.1,-26220,9.1,-26184,9.1,-26184,9.1,-24185,9.1,-15671,9.1,-26206,9.1,-26195,9.1,-26195,0
9.2,-17543,9.2,-19779,9.2,-18963,9.2,-26219,9.2,-15658,9.2,-17176,9.2,-18742,9.2,-26207,9.2,-19694,9.2,-17916,9.2,-19833,9.2,-18690,9.2,-18326,9.2,-16533,9.2,-19649,9.2,-19233,9.2,-20802,9.2,-24778,9.2,-22582,9.2,-22729,9.2,-19090,9.2,-19453,9.2,-24555,9.2,-23074,9.2,-23642,9.2,-20200,9.2,-26113,9.2,-17896,9.2,-26209,9.2,-26189,9.2,-26189,9.2,-24170,9.2,-15697,9.2,-26217,9.2,-26188,9.2,-26188,0
9.3,-17530,9.3,-19769,9.3,-18959,9.3,-26199,9.3,-15692,9.3,-17173,9.3,-18761,9.3,-26222,9.3,-19727,9.3,-17908,9.3,-19839,9.3,-18699,9.3,-18327,9.3,-16486,9.3,-19638,9.3,-19221,9.3,-20653,9.3,-24651,9.3,-22474,9.3,-22604,9.3,-19011,9.3,-19470,9.3,-24598,9.3,-23086,9.3,-23665,9.3,-20207,9.3,-26158,9.3,-17897,9.3,-26204,9.3,-26193,9.3,-26193,9.3,-24154,9.3,-15674,9.3,-26212,9.3,-26191,9.3,-26191,0
9.4,-17526,9.4,-19756,9.4,-18941,9.4,-26197,9.4,-15712,9.4,-17214,9.4,-18766,9.4,-26220,9.4,-19681,9.4,-17896,9.4,-19801,9.4,-18667,9.4,-18333,9.4,-16494,9.4,-19612,9.4,-19237,9.4,-20719,9.4,-24665,9.4,-22478,9.4,-22613,9.4,-19043,9.4,-19437,9.4,-24505,9.4,-23026,9.4,-23622,9.4,-20217,9.4,-26092,9.4,-17874,9.4,-26216,9.4,-26188,9.4,-26188,9.4,-24146,9.4,-15688,9.4,-26211,9.4,-26191,9.4,-26191,0
9.5,-17550,9.5,-19770,9.5,-18977,9.5,-26222,9.5,-15670,9.5,-17196,9.5,-18753,9.5,-26216,9.5,-19687,9.5,-17898,9.5,-19816,9.5,-18672,9.5,-18277,9.5,-16466,9.5,-19587,9.5,-19212,9.5,-20725,9.5,-24694,9.5,-22493,9.5,-22621,9.5,-19033,9.5,-19493,9.5,-24593,9.5,-23051,9.5,-23692,9.5,-20194,9.5,-26131,9.5,-17856,9.5,-26207,9.5,-26189,9.5,-26189,9.5,-24126,9.5,-15663,9.5,-26215,9.5,-26186,9.5,-26186,0
9.6,-17504,9.6,-19719,9.6,-18932,9.6,-26218,9.6,-15635,9.6,-17148,9.6,-18724,9.6,-26193,9.6,-19658,9.6,-17870,9.6,-19780,9.6,-18653,9.6,-18280,9.6,-16462,9.6,-19591,9.6,-19181,9.6,-20688,9.6,-24697,9.6,-22462,9.6,-22571,9.6,-18974,9.6,-19450,9.6,-24577,9.6,-23033,9.6,-23606,9.6,-20167,9.6,-26161,9.6,-17808,9.6,-26196,9.6,-26181,9.6,-26181,9.6,-24118,9.6,-15660,9.6,-26215,9.6,-26192,9.6,-26192,0
9.7,-17460,9.7,-19685,9.7,-18887,9.7,-26212,9.7,-15651,9.7,-17137,9.7,-18719,9.7,-26208,9.7,-19604,9.7,-17823,9.7,-19738,9.7,-18611,9.7,-18283,9.7,-16493,9.7,-19613,9.7,-19204,9.7,-20649,9.7,-24702,9.7,-22419,9.7,-22542,9.7,-18949,9.7,-19410,9.7,-24549,9.7,-23047,9.7,-23669,9.7,-20133,9.7,-26178,9.7,-17779,9.7,-26208,9.7,-26194,9.7,-26194,9.7,-24081,9.7,-15622,9.7,-26225,9.7,-26188,9.7,-26188,0
9.8,-17424,9.8,-19668,9.8,-18857,9.8,-26202,9.8,-15618,9.8,-17102,9.8,-18691,9.8,-26210,9.8,-19615,9.8,-17815,9.8,-19757,9.8,-18596,9.8,-18237,9.8,-16418,9.8,-19577,9.8,-19180,9.8,-20722,9.8,-24710,9.8,-22491,9.8,-22613,9.8,-18994,9.8,-19404,9.8,-24545,9.8,-23016,9.8,-23634,9.8,-20136,9.8,-26132,9.8,-17813,9.8,-26211,9.8,-26189,9.8,-26189,9.8,-24112,9.8,-15662,9.8,-26212,9.8,-26194,9.8,-26194,0
9.9,-17492,9.9,-19725,9.9,-18905,9.9,-26201,9.9,-15653,9.9,-17160,9.9,-18740,9.9,-26212,9.9,-19700,9.9,-17890,9.9,-19830,9.9,-18678,9.9,-18317,9.9,-16498,9.9,-19613,9.9,-19229,9.9,-20715,9.9,-24678,9.9,-22477,9.9,-22642,9.9,-19027,9.9,-19460,9.9,-24563,9.9,-23051,9.9,-23683,9.9,-20167,9.9,-26137,9.9,-17910,9.9,-26220,9.9,-26189,9.9,-26189,9.9,-24172,9.9,-15676,9.9,-26210,9.9,-26194,9.9,-26194,0
10,-17552,10,-19777,10,-18989,10,-26203,10,-15695,10,-17206,10,-18804,10,-26218,10,-19724,10,-17951,10,-19865,10,-18719,10,-18339,10,-16507,10,-19635,10,-19248,10,-20795,10,-24753,10,-22561,10,-22666,10,-19069,10,-19510,10,-24601,10,-23116,10,-23689,10,-20191,10,-26153,10,-17907,10,-26195,10,-26192,10,-26192,10,-24144,10,-15694,10,-26221,10,-26196,10,-26196,0
10.1,-17556,10.1,-19776,10.1,-18991,10.1,-26202,10.1,-15712,10.1,-17222,10.1,-18802,10.1,-26216,10.1,-19727,10.1,-17936,10.1,-19862,10.1,-18744,10.1,-18290,10.1,-16462,10.1,-19598,10.1,-19225,10.1,-20775,10.1,-24716,10.1,-22562,10.1,-22695,10.1,-19079,10.1,-19489,10.1,-24582,10.1,-23054,10.1,-23674,10.1,-20221,10.1,-26154,10.1,-17933,10.1,-26222,10.1,-26188,10.1,-26188,10.1,-24201,10.1,-15704,10.1,-26203,10.1,-26188,10.1,-26188,0
10.2,-17551,10.2,-19783,10.2,-18994,10.2,-26206,10.2,-15731,10.2,-17246,10.2,-18799,10.2,-26212,10.2,-19715,10.2,-17939,10.2,-19867,10.2,-18747,10.2,-18322,10.2,-16505,10.2,-19637,10.2,-19270,10.2,-20737,10.2,-24716,10.2,-22500,10.2,-22654,10.2,-19038,10.2,-19387,10.2,-24516,10.2,-23020,10.2,-23623,10.2,-20147,10.2,-26090,10.2,-17880,10.2,-26211,10.2,-26188,10.2,-26188,10.2,-24122,10.2,-15686,10.2,-26208,10.2,-26197,10.2,-26197,0
10.3,-17555,10.3,-19762,10.3,-18989,10.3,-26204,10.3,-15718,10.3,-17223,10.3,-18807,10.3,-26216,10.3,-19675,10.3,-17890,10.3,-19815,10.3,-18700,10.3,-18302,10.3,-16515,10.3,-19620,10.3,-19263,10.3,-20719,10.3,-24687,10.3,-22481,10.3,-22630,10.3,-19049,10.3,-19455,10.3,-24554,10.3,-23029,10.3,-23637,10.3,-20175,10.3,-26122,10.3,-17868,10.3,-26220,10.3,-26189,10.3,-26189,10.3,-24156,10.3,-15658,10.3,-26210,10.3,-26194,10.3,-26194,0
10.4,-17520,10.4,-19762,10.4,-18963,10.4,-26220,10.4,-15668,10.4,-17157,10.4,-18780,10.4,-26206,10.4,-19647,10.4,-17853,10.4,-19774,10.4,-18662,10.4,-18284,10.4,-16462,10.4,-19612,10.4,-19239,10.4,-20713,10.4,-24703,10.4,-22457,10.4,-22584,10.4,-19006,10.4,-19483,10.4,-24561,10.4,-23034,10.4,-23656,10.4,-20208,10.4,-26133,10.4,-17819,10.4,-26207,10.4,-26190,10.4,-26190,10.4,-24113,10.4,-15638,10.4,-26203,10.4,-26195,10.4,-26195,0
10.5,-17471,10.5,-19708,10.5,-18906,10.5,-26197,10.5,-15640,10.5,-17131,10.5,-18734,10.5,-26209,10.5,-19618,10.5,-17826,10.5,-19750,10.5,-18639,10.5,-18214,10.5,-16347,10.5,-19520,10.5,-19185,10.5,-20646,10.5,-24660,10.5,-22434,10.5,-22574,10.5,-18955,10.5,-19377,10.5,-24563,10.5,-23012,10.5,-23608,10.5,-20146,10.5,-26142,10.5,-17783,10.5,-26212,10.5,-26187,10.5,-26187,10.5,-24084,10.5,-15626,10.5,-26219,10.5,-26193,10.5,-26193,0
10.6,-17439,10.6,-19678,10.6,-18863,10.6,-26213,10.6,-15597,10.6,-17100,10.6,-18701,10.6,-26205,10.6,-19569,10.6,-17767,10.6,-19705,10.6,-18582,10.6,-18264,10.6,-16426,10.6,-19563,10.6,-19192,10.6,-20566,10.6,-24664,10.6,-22411,10.6,-22506,10.6,-18897,10.6,-19437,10.6,-24547,10.6,-23035,10.6,-23665,10.6,-20149,10.6,-26160,10.6,-17731,10.6,-26206,10.6,-26193,10.6,-26193,10.6,-24071,10.6,-15613,10.6,-26223,10.6,-26187,10.6,-26187,0
10.7,-17435,10.7,-19665,10.7,-18860,10.7,-26201,10.7,-15618,10.7,-17089,10.7,-18722,10.7,-26205,10.7,-19617,10.7,-17821,10.7,-19793,10.7,-18657,10.7,-18266,10.7,-16508,10.7,-19616,10.7,-19221,10.7,-20689,10.7,-24677,10.7,-22472,10.7,-22619,10.7,-18988,10.7,-19490,10.7,-24581,10.7,-23079,10.7,-23667,10.7,-20185,10.7,-26155,10.7,-17832,10.7,-26218,10.7,-26180,10.7,-26180,10.7,-24160,10.7,-15667,10.7,-26213,10.7,-26189,10.7,-26189,0
10.8,-17529,10.8,-19763,10.8,-18950,10.8,-26222,10.8,-15630,10.8,-17133,10.8,-18742,10.8,-26196,10.8,-19666,10.8,-17854,10.8,-19819,10.8,-18696,10.8,-18291,10.8,-16448,10.8,-19604,10.8,-19246,10.8,-20736,10.8,-24750,10.8,-22573,10.8,-22705,10.8,-19042,10.8,-19409,10.8,-24512,10.8,-23035,10.8,-23639,10.8,-20162,10.8,-26075,10.8,-17875,10.8,-26210,10.8,-26187,10.8,-26187,10.8,-24175,10.8,-15665,10.8,-26197,10.8,-26192,10.8,-26192,0
10.9,-17553,10.9,-19784,10.9,-18972,10.9,-26216,10.9,-15670,10.9,-17178,10.9,-18761,10.9,-26198,10.9,-19678,10.9,-17870,10.9,-19818,10.9,-18714,10.9,-18295,10.9,-16493,10.9,-19613,10.9,-19224,10.9,-20762,10.9,-24732,10.9,-22544,10.9,-22641,10.9,-19055,10.9,-19422,10.9,-24545,10.9,-23040,10.9,-23634,10.9,-20197,10.9,-26145,10.9,-17880,10.9,-26209,10.9,-26191,10.9,-26191,10.9,-24140,10.9,-15707,10.9,-26224,10.9,-26186,10.9,-26186,0
11,-17515,11,-19752,11,-18952,11,-26185,11,-15667,11,-17182,11,-18787,11,-26217,11,-19687,11,-17899,11,-19844,11,-18712,11,-18278,11,-16441,11,-19591,11,-19234,11,-20768,11,-24739,11,-22504,11,-22655,11,-19062,11,-19433,11,-24571,11,-23066,11,-23641,11,-20165,11,-26165,11,-17863,11,-26206,11,-26187,11,-26187,11,-24146,11,-15677,11,-26215,11,-26196,11,-26196,0
11.1,-17512,11.1,-19753,11.1,-18964,11.1,-26208,11.1,-15663,11.1,-17181,11.1,-18764,11.1,-26217,11.1,-19654,11.1,-17850,11.1,-19798,11.1,-18706,11.1,-18297,11.1,-16454,11.1,-19607,11.1,-19243,11.1,-20748,11.1,-24733,11.1,-22507,11.1,-22637,11.1,-19042,11.1,-19445,11.1,-24562,11.1,-23044,11.1,-23681,11.1,-20199,11.1,-26148,11.1,-17828,11.1,-26223,11.1,-26192,11.1,-26192,11.1,-24140,11.1,-15629,11.1,-26205,11.1,-26190,11.1,-26190,0
11.2,-17494,11.2,-19743,11.2,-18946,11.2,-26218,11.2,-15626,11.2,-17158,11.2,-18758,11.2,-26199,11.2,-19662,11.2,-17869,11.2,-19809,11.2,-18646,11.2,-18274,11.2,-16406,11.2,-19559,11.2,-19215,11.2,-20634,11.2,-24676,11.2,-22451,11.2,-22584,11.2,-18957,11.2,-19460,11.2,-24561,11.2,-23050,11.2,-23644,11.2,-20186,11.2,-26145,11.2,-17783,11.2,-26209,11.2,-26193,11.2,-26193,11.2,-24090,11.2,-15635,11.2,-26219,11.2,-26192,11.2,-26192,0
11.3,-17441,11.3,-19685,11.3,-18884,11.3,-26199,11.3,-15612,11.3,-17130,11.3,-18723,11.3,-26204,11.3,-19605,11.3,-17790,11.3,-19725,11.3,-18641,11.3,-18289,11.3,-16495,11.3,-19610,11.3,-19205,11.3,-20642,11.3,-24678,11.3,-22446,11.3,-22546,11.3,-18944,11.3,-19404,11.3,-24508,11.3,-22989,11.3,-23594,11.3,-20140,11.3,-26087,11.3,-17741,11.3,-26205,11.3,-26193,11.3,-26193,11.3,-24095,11.3,-15587,11.3,-26204,11.3,-26197,11.3,-26197,0
11.4,-17401,11.4,-19669,11.4,-18861,11.4,-26193,11.4,-15591,11.4,-17089,11.4,-18725,11.4,-26222,11.4,-19589,11.4,-17758,11.4,-19715,11.4,-18574,11.4,-18226,11.4,-16426,11.4,-19554,11.4,-19173,11.4,-20615,11.4,-24709,11.4,-22426,11.4,-22545,11.4,-18921,11.4,-19310,11.4,-24472,11.4,-22944,11.4,-23546,11.4,-20115,11.4,-26073,11.4,-17742,11.4,-26227,11.4,-26190,11.4,-26190,11.4,-24094,11.4,-15567,11.4,-26211,11.4,-26194,11.4,-26194,0
11.5,-17393,11.5,-19636,11.5,-18836,11.5,-26199,11.5,-15563,11.5,-17062,11.5,-18706,11.5,-26211,11.5,-19571,11.5,-17785,11.5,-19738,11.5,-18608,11.5,-18243,11.5,-16352,11.5,-19557,11.5,-19186,11.5,-20659,11.5,-24657,11.5,-22463,11.5,-22596,11.5,-18960,11.5,-19412,11.5,-24539,11.5,-23026,11.5,-23650,11.5,-20132,11.5,-26096,11.5,-17788,11.5,-26213,11.5,-26188,11.5,-26188,11.5,-24117,11.5,-15644,11.5,-26226,11.5,-26195,11.5,-26195,0
11.6,-17476,11.6,-19705,11.6,-18918,11.6,-26222,11.6,-15626,11.6,-17127,11.6,-18706,11.6,-26216,11.6,-19638,11.6,-17814,11.6,-19778,11.6,-18682,11.6,-18275,11.6,-16397,11.6,-19581,11.6,-19204,11.6,-20675,11.6,-24716,11.6,-22513,11.6,-22635,11.6,-18983,11.6,-19402,11.6,-24547,11.6,-23048,11.6,-23645,11.6,-20158,11.6,-26145,11.6,-17834,11.6,-26214,11.6,-26188,11.6,-26188,11.6,-24159,11.6,-15638,11.6,-26209,11.6,-26190,11.6,-26190,0
11.7,-17500,11.7,-19732,11.7,-18940,11.7,-26204,11.7,-15653,11.7,-17182,11.7,-18745,11.7,-26210,11.7,-19667,11.7,-17830,11.7,-19814,11.7,-18699,11.7,-18270,11.7,-16423,11.7,-19598,11.7,-19215,11.7,-20626,11.7,-24698,11.7,-22503,11.7,-22596,11.7,-18986,11.7,-19457,11.7,-24549,11.7,-23046,11.7,-23636,11.7,-20182,11.7,-26113,11.7,-17854,11.7,-26211,11.7,-26189,11.7,-26189,11.7,-24159,11.7,-15661,11.7,-26213,11.7,-26193,11.7,-26193,0
11.8,-17530,11.8,-19777,11.8,-18956,11.8,-26219,11.8,-15633,11.8,-17156,11.8,-18765,11.8,-26203,11.8,-19706,11.8,-17887,11.8,-19834,11.8,-18692,11.8,-18270,11.8,-16418,11.8,-19580,11.8,-19225,11.8,-20721,11.8,-24711,11.8,-22523,11.8,-22638,11.8,-19006,11.8,-19414,11.8,-24526,11.8,-23036,11.8,-23611,11.8,-20179,11.8,-26091,11.8,-17858,11.8,-26215,11.8,-26193,11.8,-26193,11.8,-24161,11.8,-15666,11.8,-26204,11.8,-26195,11.8,-26195,0
11.9,-17499,11.9,-19746,11.9,-18944,11.9,-26208,11.9,-15665,11.9,-17181,11.9,-18757,11.9,-26212,11.9,-19674,11.9,-17848,11.9,-19820,11.9,-18678,11.9,-18286,11.9,-16438,11.9,-19593,11.9,-19219,11.9,-20677,11.9,-24702,11.9,-22497,11.9,-22607,11.9,-19002,11.9,-19386,11.9,-24494,11.9,-22982,11.9,-23571,11.9,-20155,11.9,-26081,11.9,-17829,11.9,-26209,11.9,-26191,11.9,-26191,11.9,-24145,11.9,-15647,11.9,-26214,11.9,-26187,11.9,-26187,0
12,-17517,12,-19767,12,-18953,12,-26205,12,-15629,12,-17129,12,-18755,12,-26204,12,-19693,12,-17851,12,-19793,12,-18685,12,-18290,12,-16481,12,-19608,12,-19235,12,-20651,12,-24705,12,-22474,12,-22592,12,-18984,12,-19397,12,-24524,12,-23034,12,-23634,12,-20120,12,-26118,12,-17808,12,-26212,12,-26188,12,-26188,12,-24154,12,-15641,12,-26212,12,-26196,12,-26196,0
12.1,-17478,12.1,-19741,12.1,-18906,12.1,-26230,12.1,-15594,12.1,-17113,12.1,-18690,12.1,-26193,12.1,-19648,12.1,-17838,12.1,-19783,12.1,-18651,12.1,-18231,12.1,-16420,12.1,-19576,12.1,-19180,12.1,-20680,12.1,-24716,12.1,-22482,12.1,-22574,12.1,-18950,12.1,-19361,12.1,-24556,12.1,-23016,12.1,-23600,12.1,-20123,12.1,-26136,12.1,-17755,12.1,-26201,12.1,-26197,12.1,-26197,12.1,-24086,12.1,-15619,12.1,-26217,12.1,-26187,12.1,-26187,0
12.2,-17443,12.2,-19673,12.2,-18870,12.2,-26225,12.2,-15571,12.2,-17119,12.2,-18679,12.2,-26190,12.2,-19602,12.2,-17769,12.2,-19732,12.2,-18582,12.2,-18277,12.2,-16474,12.2,-19590,12.2,-19194,12.2,-20603,12.2,-24657,12.2,-22408,12.2,-22571,12.2,-18916,12.2,-19350,12.2,-24516,12.2,-23005,12.2,-23580,12.2,-20087,12.2,-26108,12.2,-17723,12.2,-26208,12.2,-26191,12.2,-26191,12.2,-24058,12.2,-15601,12.2,-26211,12.2,-26183,12.2,-26183,0
12.3,-17441,12.3,-19682,12.3,-18870,12.3,-26219,12.3,-15589,12.3,-17107,12.3,-18700,12.3,-26219,12.3,-19662,12.3,-17832,12.3,-19786,12.3,-18625,12.3,-18214,12.3,-16395,12.3,-19557,12.3,-19177,12.3,-20737,12.3,-24686,12.3,-22514,12.3,-22646,12.3,-19002,12.3,-19460,12.3,-24525,12.3,-23057,12.3,-23638,12.3,-20184,12.3,-26107,12.3,-17823,12.3,-26210,12.3,-26196,12.3,-26196,12.3,-24132,12.3,-15656,12.3,-26220,12.3,-26197,12.3,-26197,0
12.4,-17509,12.4,-19767,12.4,-18937,12.4,-26203,12.4,-15645,12.4,-17177,12.4,-18724,12.4,-26204,12.4,-19717,12.4,-17881,12.4,-19837,12.4,-18686,12.4,-18304,12.4,-16461,12.4,-19614,12.4,-19226,12.4,-20726,12.4,-24716,12.4,-22547,12.4,-22678,12.4,-19038,12.4,-19497,12.4,-24570,12.4,-23066,12.4,-23705,12.4,-20209,12.4,-26140,12.4,-17937,12.4,-26229,12.4,-26199,12.4,-26199,12.4,-24200,12.4,-15716,12.4,-26215,12.4,-26185,12.4,-26185,0
12.5,-17577,12.5,-19784,12.5,-19003,12.5,-26209,12.5,-15690,12.5,-17205,12.5,-18762,12.5,-26212,12.5,-19735,12.5,-17928,12.5,-19875,12.5,-18762,12.5,-18282,12.5,-16468,12.5,-19611,12.5,-19254,12.5,-20704,12.5,-24679,12.5,-22513,12.5,-22652,12.5,-19056,12.5,-19460,12.5,-24542,12.5,-23049,12.5,-23687,12.5,-20193,12.5,-26113,12.5,-17934,12.5,-26217,12.5,-26199,12.5,-26199,12.5,-24177,12.5,-15699,12.5,-26211,12.5,-26192,12.5,-26192,0
12.6,-17594,12.6,-19805,12.6,-19026,12.6,-26214,12.6,-15709,12.6,-17220,12.6,-18806,12.6,-26218,12.6,-19725,12.6,-17919,12.6,-19870,12.6,-18757,12.6,-18334,12.6,-16505,12.6,-19625,12.6,-19288,12.6,-20778,12.6,-24731,12.6,-22580,12.6,-22689,12.6,-19091,12.6,-19455,12.6,-24554,12.6,-23055,12.6,-23685,12.6,-20201,12.6,-26129,12.6,-17924,12.6,-26211,12.6,-26180,12.6,-26180,12.6,-24164,12.6,-15744,12.6,-26219,12.6,-26184,12.6,-26184,0
12.7,-17603,12.7,-19811,12.7,-19027,12.7,-26219,12.7,-15677,12.7,-17171,12.7,-18788,12.7,-26204,12.7,-19733,12.7,-17899,12.7,-19835,12.7,-18742,12.7,-18334,12.7,-16515,12.7,-19629,12.7,-19279,12.7,-20731,12.7,-24709,12.7,-22521,12.7,-22663,12.7,-19049,12.7,-19398,12.7,-24525,12.7,-23035,12.7,-23605,12.7,-20175,12.7,-26135,12.7,-17937,12.7,-26226,12.7,-26196,12.7,-26196,12.7,-24186,12.7,-15713,12.7,-26219,12.7,-26178,12.7,-26178,0
12.8,-17602,12.8,-19793,12.8,-18994,12.8,-26214,12.8,-15733,12.8,-17240,12.8,-18830,12.8,-26243,12.8,-19710,12.8,-17897,12.8,-19839,12.8,-18773,12.8,-18309,12.8,-16490,12.8,-19591,12.8,-19274,12.8,-20738,12.8,-24707,12.8,-22513,12.8,-22662,12.8,-19061,12.8,-19428,12.8,-24554,12.8,-23047,12.8,-23649,12.8,-20132,12.8,-26145,12.8,-17893,12.8,-26214,12.8,-26190,12.8,-26190,12.8,-24152,12.8,-15699,12.8,-26207,12.8,-26174,12.8,-26174,0
12.9,-17554,12.9,-19773,12.9,-18984,12.9,-26193,12.9,-15668,12.9,-17167,12.9,-18807,12.9,-26210,12.9,-19682,12.9,-17879,12.9,-19813,12.9,-18729,12.9,-18269,12.9,-16438,12.9,-19566,12.9,-19231,12.9,-20696,12.9,-24680,12.9,-22481,12.9,-22632,12.9,-19009,12.9,-19410,12.9,-24548,12.9,-23038,12.9,-23639,12.9,-20132,12.9,-26122,12.9,-17867,12.9,-26212,12.9,-26193,12.9,-26193,12.9,-24112,12.9,-15679,12.9,-26218,12.9,-26186,12.9,-26186,0
13,-17530,13,-19729,13,-18967,13,-26223,13,-15645,13,-17156,13,-18737,13,-26202,13,-19643,13,-17819,13,-19754,13,-18666,13,-18241,13,-16400,13,-19533,13,-19225,13,-20680,13,-24683,13,-22490,13,-22616,13,-18980,13,-19475,13,-24558,13,-23039,13,-23636,13,-20162,13,-26119,13,-17827,13,-26209,13,-26189,13,-26189,13,-24105,13,-15660,13,-26212,13,-26175,13,-26175,0
13.1,-17514,13.1,-19723,13.1,-18959,13.1,-26215,13.1,-15632,13.1,-17146,13.1,-18746,13.1,-26198,13.1,-19689,13.1,-17875,13.1,-19842,13.1,-18711,13.1,-18274,13.1,-16447,13.1,-19581,13.1,-19235,13.1,-20754,13.1,-24729,13.1,-22522,13.1,-22664,13.1,-19038,13.1,-19393,13.1,-24534,13.1,-23026,13.1,-23611,13.1,-20149,13.1,-26103,13.1,-17916,13.1,-26202,13.1,-26181,13.1,-26181,13.1,-24159,13.1,-15723,13.1,-26211,13.1,-26183,13.1,-26183,0
13.2,-17613,13.2,-19819,13.2,-19054,13.2,-26209,13.2,-15713,13.2,-17188,13.2,-18803,13.2,-26205,13.2,-19777,13.2,-17984,13.2,-19934,13.2,-18803,13.2,-18382,13.2,-16524,13.2,-19646,13.2,-19309,13.2,-20741,13.2,-24739,13.2,-22554,13.2,-22727,13.2,-19068,13.2,-19407,13.2,-24540,13.2,-23048,13.2,-23625,13.2,-20166,13.2,-26126,13.2,-17992,13.2,-26206,13.2,-26186,13.2,-26186,13.2,-24195,13.2,-15776,13.2,-26207,13.2,-26185,13.2,-26185,0
13.3,-17681,13.3,-19865,13.3,-19092,13.3,-26213,13.3,-15746,13.3,-17233,13.3,-18843,13.3,-26203,13.3,-19770,13.3,-17964,13.3,-19914,13.3,-18834,13.3,-18369,13.3,-16551,13.3,-19675,13.3,-19323,13.3,-20797,13.3,-24726,13.3,-22556,13.3,-22715,13.3,-19133,13.3,-19456,13.3,-24571,13.3,-23058,13.3,-23664,13.3,-20196,13.3,-26122,13.3,-18033,13.3,-26217,13.3,-26193,13.3,-26193,13.3,-24216,13.3,-15775,13.3,-26213,13.3,-26185,13.3,-26185,0
13.4,-17706,13.4,-19860,13.4,-19128,13.4,-26213,13.4,-15763,13.4,-17276,13.4,-18857,13.4,-26193,13.4,-19787,13.4,-17947,13.4,-19887,13.4,-18856,13.4,-18365,13.4,-16523,13.4,-19650,13.4,-19338,13.4,-20757,13.4,-24718,13.4,-22557,13.4,-22709,13.4,-19112,13.4,-19432,13.4,-24526,13.4,-23034,13.4,-23651,13.4,-20161,13.4,-26086,13.4,-18056,13.4,-26220,13.4,-26181,13.4,-26181,13.4,-24239,13.4,-15819,13.4,-26223,13.4,-26194,13.4,-26194,0
13.5,-17711,13.5,-19908,13.5,-19125,13.5,-26212,13.5,-15775,13.5,-17275,13.5,-18885,13.5,-26202,13.5,-19802,13.5,-17991,13.5,-19924,13.5,-18848,13.5,-18343,13.5,-16459,13.5,-19623,13.5,-19342,13.5,-20805,13.5,-24748,13.5,-22600,13.5,-22740,13.5,-19125,13.5,-19498,13.5,-24536,13.5,-23067,13.5,-23642,13.5,-20209,13.5,-26093,13.5,-18060,13.5,-26214,13.5,-26193,13.5,-26193,13.5,-24190,13.5,-15797,13.5,-26211,13.5,-26189,13.5,-26189,0
13.6,-17687,13.6,-19886,13.6,-19119,13.6,-26211,13.6,-15763,13.6,-17229,13.6,-18884,13.6,-26204,13.6,-19788,13.6,-17996,13.6,-19904,13.6,-18847,13.6,-18339,13.6,-16480,13.6,-19615,13.6,-19335,13.6,-20748,13.6,-24704,13.6,-22543,13.6,-22652,13.6,-19071,13.6,-19458,13.6,-24564,13.6,-23023,13.6,-23648,13.6,-20172,13.6,-26139,13.6,-18006,13.6,-26208,13.6,-26192,13.6,-26192,13.6,-24181,13.6,-15775,13.6,-26204,13.6,-26190,13.6,-26190,0
13.7,-17680,13.7,-19844,13.7,-19131,13.7,-26226,13.7,-15736,13.7,-17221,13.7,-18855,13.7,-26190,13.7,-19757,13.7,-17955,13.7,-19871,13.7,-18810,13.7,-18321,13.7,-16525,13.7,-19618,13.7,-19329,13.7,-20819,13.7,-24715,13.7,-22503,13.7,-22665,13.7,-19079,13.7,-19479,13.7,-24572,13.7,-23084,13.7,-23662,13.7,-20181,13.7,-26143,13.7,-18001,13.7,-26210,13.7,-26183,13.7,-26183,13.7,-24171,13.7,-15754,13.7,-26208,13.7,-26180,13.7,-26180,0
13.8,-17653,13.8,-19839,13.8,-19093,13.8,-26217,13.8,-15733,13.8,-17225,13.8,-18862,13.8,-26213,13.8,-19739,13.8,-17903,13.8,-19831,13.8,-18786,13.8,-18325,13.8,-16500,13.8,-19587,13.8,-19315,13.8,-20733,13.8,-24719,13.8,-22528,13.8,-22614,13.8,-19029,13.8,-19392,13.8,-24523,13.8,-23003,13.8,-23602,13.8,-20117,13.8,-26093,13.8,-17935,13.8,-26220,13.8,-26187,13.8,-26187,13.8,-24141,13.8,-15713,13.8,-26199,13.8,-26180,13.8,-26180,0
13.9,-17581,13.9,-19790,13.9,-19046,13.9,-26192,13.9,-15699,13.9,-17192,13.9,-18806,13.9,-26209,13.9,-19717,13.9,-17913,13.9,-19835,13.9,-18756,13.9,-18298,13.9,-16495,13.9,-19611,13.9,-19299,13.9,-20746,13.9,-24708,13.9,-22474,13.9,-22650,13.9,-19029,13.9,-19480,13.9,-24591,13.9,-23056,13.9,-23662,13.9,-20186,13.9,-26164,13.9,-17958,13.9,-26200,13.9,-26190,13.9,-26190,13.9,-24146,13.9,-15754,13.9,-26205,13.9,-26181,13.9,-26181,0
14,-17638,14,-19808,14,-19085,14,-26196,14,-15772,14,-17232,14,-18872,14,-26215,14,-19787,14,-17975,14,-19913,14,-18819,14,-18345,14,-16471,14,-19604,14,-19318,14,-20768,14,-24734,14,-22595,14,-22726,14,-19096,14,-19476,14,-24565,14,-23057,14,-23621,14,-20208,14,-26103,14,-18040,14,-26200,14,-26191,14,-26191,14,-24217,14,-15788,14,-26213,14,-26188,14,-26188,0
14.1,-17736,14.1,-19898,14.1,-19196,14.1,-26221,14.1,-15746,14.1,-17227,14.1,-18881,14.1,-26201,14.1,-19827,14.1,-18011,14.1,-19947,14.1,-18889,14.1,-18388,14.1,-16552,14.1,-19663,14.1,-19354,14.1,-20779,14.1,-24727,14.1,-22607,14.1,-22749,14.1,-19115,14.1,-19493,14.1,-24585,14.1,-23084,14.1,-23680,14.1,-20188,14.1,-26143,14.1,-18114,14.1,-26219,14.1,-26194,14.1,-26194,14.1,-24258,14.1,-15814,14.1,-26205,14.1,-26183,14.1,-26183,0
14.2,-17752,14.2,-19939,14.2,-19192,14.2,-26199,14.2,-15789,14.2,-17279,14.2,-18889,14.2,-26213,14.2,-19805,14.2,-18011,14.2,-19935,14.2,-18890,14.2,-18405,14.2,-16599,14.2,-19692,14.2,-19375,14.2,-20837,14.2,-24770,14.2,-22599,14.2,-22739,14.2,-19155,14.2,-19452,14.2,-24558,14.2,-23006,14.2,-23636,14.2,-20174,14.2,-26106,14.2,-18094,14.2,-26196,14.2,-26194,14.2,-26194,14.2,-24207,14.2,-15821,14.2,-26211,14.2,-26195,14.2,-26195,0
14.3,-17775,14.3,-19905,14.3,-19201,14.3,-26204,14.3,-15815,14.3,-17273,14.3,-18904,14.3,-26209,14.3,-19794,14.3,-18003,14.3,-19938,14.3,-18889,14.3,-18385,14.3,-16537,14.3,-19647,14.3,-19374,14.3,-20815,14.3,-24688,14.3,-22548,14.3,-22712,14.3,-19120,14.3,-19465,14.3,-24562,14.3,-23074,14.3,-23643,14.3,-20191,14.3,-26132,14.3,-18096,14.3,-26198,14.3,-26192,14.3,-26192,14.3,-24232,14.3,-15822,14.3,-26204,14.3,-26187,14.3,-26187,0
14.4,-17758,14.4,-19919,14.4,-19210,14.4,-26211,14.4,-15775,14.4,-17255,14.4,-18887,14.4,-26193,14.4,-19788,14.4,-17999,14.4,-19919,14.4,-18885,14.4,-18340,14.4,-16510,14.4,-19634,14.4,-19354,14.4,-20791,14.4,-24753,14.4,-22562,14.4,-22710,14.4,-19094,14.4,-19467,14.4,-24564,14.4,-23037,14.4,-23671,14.4,-20193,14.4,-26137,14.4,-18083,14.4,-26213,14.4,-26189,14.4,-26189,14.4,-24187,14.4,-15799,14.4,-26203,14.4,-26181,14.4,-26181,0
14.5,-17738,14.5,-19903,14.5,-19161,14.5,-26208,14.5,-15775,14.5,-17216,14.5,-18914,14.5,-26222,14.5,-19756,14.5,-17951,14.5,-19865,14.5,-18859,14.5,-18310,14.5,-16469,14.5,-19583,14.5,-19334,14.5,-20783,14.5,-24734,14.5,-22537,14.5,-22664,14.5,-19094,14.5,-19475,14.5,-24578,14.5,-23047,14.5,-23644,14.5,-20179,14.5,-26140,14.5,-18057,14.5,-26206,14.5,-26191,14.5,-26191,14.5,-24236,14.5,-15789,14.5,-26229,14.5,-26184,14.5,-26184,0
14.6,-17725,14.6,-19888,14.6,-19159,14.6,-26232,14.6,-15729,14.6,-17202,14.6,-18873,14.6,-26208,14.6,-19750,14.6,-17961,14.6,-19894,14.6,-18845,14.6,-18326,14.6,-16529,14.6,-19626,14.6,-19320,14.6,-20709,14.6,-24701,14.6,-22498,14.6,-22616,14.6,-19006,14.6,-19442,14.6,-24556,14.6,-23037,14.6,-23641,14.6,-20139,14.6,-26112,14.6,-18011,14.6,-26213,14.6,-26188,14.6,-26188,14.6,-24178,14.6,-15735,14.6,-26209,14.6,-26193,14.6,-26193,0
14.7,-17635,14.7,-19809,14.7,-19090,14.7,-26197,14.7,-15703,14.7,-17176,14.7,-18813,14.7,-26212,14.7,-19734,14.7,-17886,14.7,-19813,14.7,-18784,14.7,-18303,14.7,-16518,14.7,-19609,14.7,-19299,14.7,-20738,14.7,-24684,14.7,-22485,14.7,-22629,14.7,-19005,14.7,-19427,14.7,-24574,14.7,-23010,14.7,-23615,14.7,-20171,14.7,-26133,14.7,-17955,14.7,-26209,14.7,-26188,14.7,-26188,14.7,-24120,14.7,-15693,14.7,-26216,14.7,-26187,14.7,-26187,0
14.8,-17607,14.8,-19775,14.8,-19061,14.8,-26203,14.8,-15668,14.8,-17119,14.8,-18805,14.8,-26209,14.8,-19721,14.8,-17910,14.8,-19867,14.8,-18779,14.8,-18276,14.8,-16429,14.8,-19573,14.8,-19302,14.8,-20799,14.8,-24740,14.8,-22561,14.8,-22688,14.8,-19081,14.8,-19420,14.8,-24560,14.8,-23044,14.8,-23656,14.8,-20127,14.8,-26145,14.8,-18015,14.8,-26213,14.8,-26193,14.8,-26193,14.8,-24193,14.8,-15763,14.8,-26213,14.8,-26196,14.8,-26196,0
14.9,-17688,14.9,-19859,14.9,-19131,14.9,-26208,14.9,-15736,14.9,-17196,14.9,-18847,14.9,-26223,14.9,-19784,14.9,-17960,14.9,-19896,14.9,-18846,14.9,-18326,14.9,-16502,14.9,-19641,14.9,-19318,14.9,-20804,14.9,-24741,14.9,-22603,14.9,-22747,14.9,-19090,14.9,-19431,14.9,-24525,14.9,-23048,14.9,-23631,14.9,-20184,14.9,-26092,14.9,-18080,14.9,-26220,14.9,-26191,14.9,-26191,14.9,-24238,14.9,-15794,14.9,-26228,14.9,-26191,14.9,-26191,0
15,-17735,15,-19896,15,-19165,15,-26212,15,-15733,15,-17206,15,-18858,15,-26210,15,-19797,15,-17985,15,-19911,15,-18886,15,-18329,15,-16479,15,-19628,15,-19338,15,-20786,15,-24727,15,-22569,15,-22715,15,-19122,15,-19503,15,-24586,15,-23082,15,-23695,15,-20201,15,-26143,15,-18085,15,-26213,15,-26192,15,-26192,15,-24247,15,-15802,15,-26214,15,-26186,15,-26186,0
15.1,-17751,15.1,-19915,15.1,-19191,15.1,-26224,15.1,-15746,15.1,-17224,15.1,-18857,15.1,-26194,15.1,-19806,15.1,-17978,15.1,-19904,15.1,-18879,15.1,-18298,15.1,-16429,15.1,-19597,15.1,-19324,15.1,-20790,15.1,-24752,15.1,-22591,15.1,-22696,15.1,-19098,15.1,-19406,15.1,-24542,15.1,-23063,15.1,-23653,15.1,-20147,15.1,-26126,15.1,-18077,15.1,-26200,15.1,-26186,15.1,-26186,15.1,-24215,15.1,-15793,15.1,-26218,15.1,-26197,15.1,-26197,0
15.2,-17692,15.2,-19859,15.2,-19186,15.2,-26196,15.2,-15734,15.2,-17190,15.2,-18869,15.2,-26213,15.2,-19826,15.2,-18013,15.2,-19939,15.2,-18895,15.2,-18322,15.2,-16496,15.2,-19628,15.2,-19341,15.2,-20837,15.2,-24743,15.2,-22597,15.2,-22733,15.2,-19105,15.2,-19497,15.2,-24563,15.2,-23067,15.2,-23640,15.2,-20203,15.2,-26132,15.2,-18047,15.2,-26207,15.2,-26187,15.2,-26187,15.2,-24187,15.2,-15756,15.2,-26209,15.2,-26180,15.2,-26180,0
15.3,-17708,15.3,-19877,15.3,-19163,15.3,-26222,15.3,-15700,15.3,-17172,15.3,-18845,15.3,-26215,15.3,-19765,15.3,-17961,15.3,-19893,15.3,-18861,15.3,-18277,15.3,-16457,15.3,-19556,15.3,-19307,15.3,-20811,15.3,-24730,15.3,-22560,15.3,-22675,15.3,-19071,15.3,-19453,15.3,-24549,15.3,-23045,15.3,-23639,15.3,-20162,15.3,-26135,15.3,-18013,15.3,-26199,15.3,-26193,15.3,-26193,15.3,-24150,15.3,-15736,15.3,-26209,15.3,-26188,15.3,-26188,0
15.4,-17653,15.4,-19836,15.4,-19110,15.4,-26198,15.4,-15703,15.4,-17166,15.4,-18838,15.4,-26202,15.4,-19730,15.4,-17932,15.4,-19858,15.4,-18820,15.4,-18277,15.4,-16444,15.4,-19583,15.4,-19291,15.4,-20797,15.4,-24736,15.4,-22547,15.4,-22667,15.4,-19068,15.4,-19385,15.4,-24571,15.4,-23035,15.4,-23618,15.4,-20090,15.4,-26166,15.4,-17967,15.4,-26190,15.4,-26193,15.4,-26193,15.4,-24159,15.4,-15717,15.4,-26230,15.4,-26183,15.4,-26183,0
15.5,-17609,15.5,-19792,15.5,-19051,15.5,-26197,15.5,-15649,15.5,-17140,15.5,-18793,15.5,-26209,15.5,-19695,15.5,-17871,15.5,-19834,15.5,-18757,15.5,-18243,15.5,-16415,15.5,-19549,15.5,-19243,15.5,-20714,15.5,-24704,15.5,-22476,15.5,-22618,15.5,-19001,15.5,-19390,15.5,-24555,15.5,-23031,15.5,-23615,15.5,-20127,15.5,-26147,15.5,-17968,15.5,-26223,15.5,-26193,15.5,-26193,15.5,-24189,15.5,-15682,15.5,-26219,15.5,-26181,15.5,-26181,0
15.6,-17585,15.6,-19770,15.6,-19029,15.6,-26208,15.6,-15632,15.6,-17111,15.6,-18773,15.6,-26213,15.6,-19624,15.6,-17814,15.6,-19763,15.6,-18719,15.6,-18211,15.6,-16396,15.6,-19542,15.6,-19209,15.6,-20679,15.6,-24692,15.6,-22465,15.6,-22609,15.6,-18986,15.6,-19415,15.6,-24528,15.6,-22995,15.6,-23624,15.6,-20152,15.6,-26119,15.6,-17904,15.6,-26198,15.6,-26197,15.6,-26197,15.6,-24110,15.6,-15661,15.6,-26214,15.6,-26190,15.6,-26190,0
15.7,-17582,15.7,-19777,15.7,-19044,15.7,-26194,15.7,-15652,15.7,-17139,15.7,-18791,15.7,-26215,15.7,-19699,15.7,-17881,15.7,-19851,15.7,-18785,15.7,-18237,15.7,-16405,15.7,-19573,15.7,-19269,15.7,-20797,15.7,-24714,15.7,-22548,15.7,-22695,15.7,-19096,15.7,-19337,15.7,-24481,15.7,-23001,15.7,-23592,15.7,-20119,15.7,-26059,15.7,-18023,15.7,-26208,15.7,-26191,15.7,-26191,15.7,-24228,15.7,-15693,15.7,-26203,15.7,-26174,15.7,-26174,0
15.8,-17668,15.8,-19827,15.8,-19113,15.8,-26213,15.8,-15686,15.8,-17176,15.8,-18824,15.8,-26218,15.8,-19743,15.8,-17919,15.8,-19878,15.8,-18844,15.8,-18275,15.8,-16475,15.8,-19627,15.8,-19284,15.8,-20801,15.8,-24776,15.8,-22615,15.8,-22695,15.8,-19103,15.8,-19413,15.8,-24539,15.8,-23051,15.8,-23635,15.8,-20151,15.8,-26110,15.8,-18043,15.8,-26198,15.8,-26191,15.8,-26191,15.8,-24205,15.8,-15682,15.8,-26203,15.8,-26182,15.8,-26182,0
15.9,-17717,15.9,-19889,15.9,-19153,15.9,-26234,15.9,-15629,15.9,-17124,15.9,-18788,15.9,-26195,15.9,-19730,15.9,-17913,15.9,-19863,15.9,-18820,15.9,-18282,15.9,-16432,15.9,-19613,15.9,-19309,15.9,-20870,15.9,-24742,15.9,-22600,15.9,-22717,15.9,-19146,15.9,-19407,15.9,-24550,15.9,-23041,15.9,-23641,15.9,-20159,15.9,-26149,15.9,-18049,15.9,-26209,15.9,-26188,15.9,-26188,15.9,-24226,15.9,-15719,15.9,-26218,15.9,-26183,15.9,-26183,0
16,-17670,16,-19862,16,-19110,16,-26201,16,-15677,16,-17163,16,-18807,16,-26203,16,-19765,16,-17963,16,-19913,16,-18845,16,-18268,16,-16439,16,-19613,16,-19307,16,-20783,16,-24741,16,-22586,16,-22714,16,-19122,16,-19466,16,-24547,16,-23039,16,-23651,16,-20204,16,-26138,16,-18044,16,-26206,16,-26188,16,-26188,16,-24209,16,-15714,16,-26203,16,-26195,16,-26195,0
16.1,-17672,16.1,-19862,16.1,-19123,16.1,-26203,16.1,-15619,16.1,-17115,16.1,-18769,16.1,-26193,16.1,-19739,16.1,-17930,16.1,-19877,16.1,-18827,16.1,-18281,16.1,-16435,16.1,-19591,16.1,-19283,16.1,-20718,16.1,-24721,16.1,-22530,16.1,-22652,16.1,-19065,16.1,-19313,16.1,-24549,16.1,-23055,16.1,-23629,16.1,-20070,16.1,-26126,16.1,-18009,16.1,-26206,16.1,-26193,16.1,-26193,16.1,-24210,16.1,-15697,16.1,-26211,16.1,-26178,16.1,-26178,0
16.2,-17620,16.2,-19799,16.2,-19083,16.2,-26210,16.2,-15634,16.2,-17107,16.2,-18756,16.2,-26200,16.2,-19667,16.2,-17889,16.2,-19842,16.2,-18787,16.2,-18263,16.2,-16445,16.2,-19603,16.2,-19263,16.2,-20754,16.2,-24708,16.2,-22518,16.2,-22649,16.2,-19062,16.2,-19401,16.2,-24546,16.2,-23012,16.2,-23613,16.2,-20146,16.2,-26128,16.2,-17968,16.2,-26210,16.2,-26199,16.2,-26199,16.2,-24165,16.2,-15679,16.2,-26226,16.2,-26185,16.2,-26185,0
16.3,-17577,16.3,-19771,16.3,-19038,16.3,-26203,16.3,-15633,16.3,-17115,16.3,-18768,16.3,-26217,16.3,-19676,16.3,-17873,16.3,-19835,16.3,-18758,16.3,-18260,16.3,-16465,16.3,-19573,16.3,-19223,16.3,-20681,16.3,-24684,16.3,-22497,16.3,-22578,16.3,-19018,16.3,-19433,16.3,-24550,16.3,-23002,16.3,-23604,16.3,-20142,16.3,-26149,16.3,-17952,16.3,-26227,16.3,-26196,16.3,-26196,16.3,-24178,16.3,-15637,16.3,-26216,16.3,-26179,16.3,-26179,0
16.4,-17539,16.4,-19724,16.4,-19008,16.4,-26198,16.4,-15586,16.4,-17055,16.4,-18721,16.4,-26222,16.4,-19665,16.4,-17849,16.4,-19789,16.4,-18711,16.4,-18200,16.4,-16421,16.4,-19553,16.4,-19208,16.4,-20682,16.4,-24688,16.4,-22501,16.4,-22626,16.4,-19001,16.4,-19389,16.4,-24561,16.4,-23032,16.4,-23622,16.4,-20125,16.4,-26180,16.4,-17893,16.4,-26207,16.4,-26186,16.4,-26186,16.4,-24134,16.4,-15618,16.4,-26211,16.4,-26190,16.4,-26190,0
16.5,-17586,16.5,-19757,16.5,-19026,16.5,-26211,16.5,-15595,16.5,-17084,16.5,-18733,16.5,-26210,16.5,-19714,16.5,-17893,16.5,-19873,16.5,-18777,16.5,-18220,16.5,-16374,16.5,-19566,16.5,-19264,16.5,-20755,16.5,-24711,16.5,-22580,16.5,-22730,16.5,-19083,16.5,-19402,16.5,-24532,16.5,-23027,16.5,-23631,16.5,-20146,16.5,-26090,16.5,-17991,16.5,-26206,16.5,-26197,16.5,-26197,16.5,-24189,16.5,-15691,16.5,-26219,16.5,-26182,16.5,-26182,0
16.6,-17638,16.6,-19806,16.6,-19095,16.6,-26210,16.6,-15621,16.6,-17118,16.6,-18772,16.6,-26210,16.6,-19770,16.6,-17970,16.6,-19962,16.6,-18858,16.6,-18261,16.6,-16419,16.6,-19599,16.6,-19297,16.6,-20794,16.6,-24750,16.6,-22632,16.6,-22775,16.6,-19128,16.6,-19497,16.6,-24607,16.6,-23106,16.6,-23685,16.6,-20198,16.6,-26194,16.6,-18056,16.6,-26209,16.6,-26183,16.6,-26183,16.6,-24199,16.6,-15717,16.6,-26218,16.6,-26177,16.6,-26177,0
16.7,-17717,16.7,-19853,16.7,-19129,16.7,-26230,16.7,-15684,16.7,-17162,16.7,-18787,16.7,-26231,16.7,-19757,16.7,-17980,16.7,-19950,16.7,-18853,16.7,-18320,16.7,-16518,16.7,-19657,16.7,-19299,16.7,-20847,16.7,-24746,16.7,-22611,16.7,-22725,16.7,-19178,16.7,-19350,16.7,-24472,16.7,-23005,16.7,-23582,16.7,-20152,16.7,-26069,16.7,-18086,16.7,-26211,16.7,-26190,16.7,-26190,16.7,-24235,16.7,-15725,16.7,-26221,16.7,-26179,16.7,-26179,0
16.8,-17691,16.8,-19866,16.8,-19130,16.8,-26213,16.8,-15663,16.8,-17147,16.8,-18810,16.8,-26218,16.8,-19755,16.8,-17992,16.8,-19951,16.8,-18869,16.8,-18270,16.8,-16475,16.8,-19652,16.8,-19315,16.8,-20782,16.8,-24741,16.8,-22605,16.8,-22718,16.8,-19150,16.8,-19425,16.8,-24508,16.8,-23014,16.8,-23624,16.8,-20188,16.8,-26088,16.8,-18075,16.8,-26213,16.8,-26190,16.8,-26190,16.8,-24250,16.8,-15708,16.8,-26213,16.8,-26187,16.8,-26187,0
16.9,-17667,16.9,-19831,16.9,-19126,16.9,-26190,16.9,-15656,16.9,-17141,16.9,-18775,16.9,-26212,16.9,-19782,16.9,-17997,16.9,-19955,16.9,-18870,16.9,-18284,16.9,-16474,16.9,-19637,16.9,-19305,16.9,-20804,16.9,-24725,16.9,-22551,16.9,-22704,16.9,-19159,16.9,-19431,16.9,-24545,16.9,-23026,16.9,-23624,16.9,-20173,16.9,-26115,16.9,-18003,16.9,-26205,16.9,-26189,16.9,-26189,16.9,-24143,16.9,-15706,16.9,-26210,16.9,-26191,16.9,-26191,0
17,-17643,17,-19788,17,-19110,17,-26200,17,-15629,17,-17094,17,-18796,17,-26213,17,-19751,17,-17993,17,-19961,17,-18850,17,-18269,17,-16464,17,-19592,17,-19293,17,-20830,17,-24728,17,-22564,17,-22706,17,-19127,17,-19463,17,-24542,17,-23012,17,-23625,17,-20182,17,-26098,17,-18014,17,-26208,17,-26193,17,-26193,17,-24169,17,-15678,17,-26220,17,-26197,17,-26197,0
17.1,-17638,17.1,-19788,17.1,-19084,17.1,-26213,17.1,-15607,17.1,-17083,17.1,-18781,17.1,-26205,17.1,-19745,17.1,-17975,17.1,-19948,17.1,-18841,17.1,-18240,17.1,-16422,17.1,-19575,17.1,-19260,17.1,-20816,17.1,-24749,17.1,-22544,17.1,-22665,17.1,-19145,17.1,-19404,17.1,-24549,17.1,-23004,17.1,-23611,17.1,-20142,17.1,-26156,17.1,-17958,17.1,-26202,17.1,-26192,17.1,-26192,17.1,-24168,17.1,-15654,17.1,-26202,17.1,-26174,17.1,-26174,0
17.2,-17561,17.2,-19728,17.2,-19030,17.2,-26190,17.2,-15578,17.2,-17061,17.2,-18753,17.2,-26220,17.2,-19683,17.2,-17937,17.2,-19901,17.2,-18771,17.2,-18221,17.2,-16426,17.2,-19574,17.2,-19229,17.2,-20745,17.2,-24688,17.2,-22470,17.2,-22599,17.2,-19059,17.2,-19435,17.2,-24510,17.2,-22965,17.2,-23562,17.2,-20156,17.2,-26090,17.2,-17903,17.2,-26204,17.2,-26191,17.2,-26191,17.2,-24128,17.2,-15620,17.2,-26216,17.2,-26180,17.2,-26180,0
17.3,-17575,17.3,-19730,17.3,-19010,17.3,-26217,17.3,-15571,17.3,-17033,17.3,-18719,17.3,-26218,17.3,-19699,17.3,-17909,17.3,-19886,17.3,-18814,17.3,-18225,17.3,-16447,17.3,-19614,17.3,-19249,17.3,-20834,17.3,-24753,17.3,-22554,17.3,-22695,17.3,-19109,17.3,-19417,17.3,-24503,17.3,-23021,17.3,-23653,17.3,-20140,17.3,-26085,17.3,-17955,17.3,-26199,17.3,-26191,17.3,-26191,17.3,-24181,17.3,-15661,17.3,-26218,17.3,-26181,17.3,-26181,0
17.4,-17668,17.4,-19825,17.4,-19077,17.4,-26227,17.4,-15628,17.4,-17108,17.4,-18754,17.4,-26217,17.4,-19758,17.4,-17986,17.4,-19965,17.4,-18861,17.4,-18294,17.4,-16516,17.4,-19658,17.4,-19303,17.4,-20807,17.4,-24730,17.4,-22583,17.4,-22737,17.4,-19153,17.4,-19405,17.4,-24530,17.4,-23022,17.4,-23609,17.4,-20187,17.4,-26115,17.4,-18051,17.4,-26213,17.4,-26191,17.4,-26191,17.4,-24234,17.4,-15707,17.4,-26213,17.4,-26180,17.4,-26180,0
17.5,-17724,17.5,-19863,17.5,-19133,17.5,-26219,17.5,-15645,17.5,-17151,17.5,-18797,17.5,-26205,17.5,-19797,17.5,-18014,17.5,-19982,17.5,-18909,17.5,-18267,17.5,-16471,17.5,-19642,17.5,-19313,17.5,-20878,17.5,-24795,17.5,-22621,17.5,-22753,17.5,-19226,17.5,-19465,17.5,-24566,17.5,-23059,17.5,-23645,17.5,-20188,17.5,-26125,17.5,-18039,17.5,-26196,17.5,-26193,17.5,-26193,17.5,-24196,17.5,-15735,17.5,-26229,17.5,-26180,17.5,-26180,0
17.6,-17724,17.6,-19868,17.6,-19172,17.6,-26219,17.6,-15681,17.6,-17153,17.6,-18827,17.6,-26219,17.6,-19815,17.6,-18043,17.6,-20029,17.6,-18956,17.6,-18289,17.6,-16460,17.6,-19611,17.6,-19323,17.6,-20822,17.6,-24742,17.6,-22605,17.6,-22761,17.6,-19185,17.6,-19500,17.6,-24592,17.6,-23076,17.6,-23683,17.6,-20194,17.6,-26146,17.6,-18067,17.6,-26206,17.6,-26189,17.6,-26189,17.6,-24200,17.6,-15731,17.6,-26216,17.6,-26184,17.6,-26184,0
17.7,-17730,17.7,-19883,17.7,-19169,17.7,-26208,17.7,-15679,17.7,-17149,17.7,-18818,17.7,-26210,17.7,-19810,17.7,-18046,17.7,-20020,17.7,-18967,17.7,-18294,17.7,-16499,17.7,-19621,17.7,-19320,17.7,-20852,17.7,-24734,17.7,-22581,17.7,-22736,17.7,-19205,17.7,-19482,17.7,-24595,17.7,-23061,17.7,-23633,17.7,-20209,17.7,-26151,17.7,-18084,17.7,-26210,17.7,-26190,17.7,-26190,17.7,-24212,17.7,-15714,17.7,-26215,17.7,-26181,17.7,-26181,0
17.8,-17698,17.8,-19833,17.8,-19156,17.8,-26197,17.8,-15639,17.8,-17132,17.8,-18815,17.8,-26211,17.8,-19767,17.8,-18021,17.8,-19986,17.8,-18921,17.8,-18298,17.8,-16498,17.8,-19651,17.8,-19333,17.8,-20873,17.8,-24744,17.8,-22608,17.8,-22718,17.8,-19217,17.8,-19504,17.8,-24555,17.8,-23046,17.8,-23641,17.8,-20196,17.8,-26148,17.8,-18048,17.8,-26205,17.8,-26193,17.8,-26193,17.8,-24168,17.8,-15676,17.8,-26197,17.8,-26182,17.8,-26182,0
17.9,-17676,17.9,-19807,17.9,-19135,17.9,-26208,17.9,-15655,17.9,-17129,17.9,-18812,17.9,-26224,17.9,-19759,17.9,-17981,17.9,-19949,17.9,-18899,17.9,-18269,17.9,-16498,17.9,-19626,17.9,-19307,17.9,-20784,17.9,-24709,17.9,-22513,17.9,-22651,17.9,-19157,17.9,-19354,17.9,-24552,17.9,-23018,17.9,-23584,17.9,-20129,17.9,-26154,17.9,-17991,17.9,-26211,17.9,-26193,17.9,-26193,17.9,-24160,17.9,-15661,17.9,-26202,17.9,-26188,17.9,-26188,0
18,-17630,18,-19789,18,-19113,18,-26206,18,-15603,18,-17093,18,-18762,18,-26203,18,-19753,18,-17958,18,-19901,18,-18855,18,-18253,18,-16459,18,-19610,18,-19270,18,-20796,18,-24711,18,-22485,18,-22640,18,-19119,18,-19420,18,-24552,18,-23013,18,-23618,18,-20148,18,-26138,18,-17953,18,-26205,18,-26188,18,-26188,18,-24154,18,-15639,18,-26219,18,-26188,18,-26188,0
18.1,-17605,18.1,-19755,18.1,-19055,18.1,-26210,18.1,-15545,18.1,-17047,18.1,-18729,18.1,-26183,18.1,-19702,18.1,-17961,18.1,-19927,18.1,-18806,18.1,-18202,18.1,-16408,18.1,-19548,18.1,-19245,18.1,-20747,18.1,-24670,18.1,-22478,18.1,-22606,18.1,-19099,18.1,-19397,18.1,-24546,18.1,-23031,18.1,-23625,18.1,-20116,18.1,-26147,18.1,-17921,18.1,-26214,18.1,-26194,18.1,-26194,18.1,-24141,18.1,-15593,18.1,-26210,18.1,-26184,18.1,-26184,0
18.2,-17578,18.2,-19732,18.2,-19011,18.2,-26218,18.2,-15563,18.2,-17029,18.2,-18706,18.2,-26223,18.2,-19675,18.2,-17929,18.2,-19917,18.2,-18826,18.2,-18191,18.2,-16391,18.2,-19543,18.2,-19244,18.2,-20761,18.2,-24728,18.2,-22528,18.2,-22625,18.2,-19090,18.2,-19451,18.2,-24606,18.2,-23061,18.2,-23639,18.2,-20159,18.2,-26193,18.2,-18002,18.2,-26214,18.2,-26190,18.2,-26190,18.2,-24195,18.2,-15639,18.2,-26208,18.2,-26196,18.2,-26196,0
18.3,-17649,18.3,-19823,18.3,-19071,18.3,-26200,18.3,-15598,18.3,-17086,18.3,-18740,18.3,-26200,18.3,-19762,18.3,-17986,18.3,-19962,18.3,-18893,18.3,-18244,18.3,-16399,18.3,-19593,18.3,-19252,18.3,-20756,18.3,-24700,18.3,-22561,18.3,-22670,18.3,-19148,18.3,-19383,18.3,-24513,18.3,-23011,18.3,-23579,18.3,-20181,18.3,-26089,18.3,-18051,18.3,-26214,18.3,-26189,18.3,-26189,18.3,-24233,18.3,-15693,18.3,-26224,18.3,-26201,18.3,-26201,0
18.4,-17725,18.4,-19847,18.4,-19129,18.4,-26213,18.4,-15644,18.4,-17132,18.4,-18803,18.4,-26219,18.4,-19784,18.4,-18006,18.4,-19990,18.4,-18896,18.4,-18282,18.4,-16458,18.4,-19623,18.4,-19290,18.4,-20828,18.4,-24741,18.4,-22597,18.4,-22720,18.4,-19205,18.4,-19345,18.4,-24490,18.4,-23015,18.4,-23590,18.4,-20148,18.4,-26093,18.4,-18071,18.4,-26201,18.4,-26194,18.4,-26194,18.4,-24215,18.4,-15689,18.4,-26202,18.4,-26194,18.4,-26194,0
18.5,-17708,18.5,-19865,18.5,-19152,18.5,-26207,18.5,-15634,18.5,-17132,18.5,-18784,18.5,-26199,18.5,-19791,18.5,-18025,18.5,-20007,18.5,-18935,18.5,-18260,18.5,-16423,18.5,-19595,18.5,-19296,18.5,-20745,18.5,-24687,18.5,-22551,18.5,-22720,18.5,-19159,18.5,-19481,18.5,-24603,18.5,-23081,18.5,-23673,18.5,-20199,18.5,-26175,18.5,-18097,18.5,-26199,18.5,-26182,18.5,-26182,18.5,-24213,18.5,-15686,18.5,-26207,18.5,-26191,18.5,-26191,0
18.6,-17714,18.6,-19853,18.6,-19156,18.6,-26200,18.6,-15655,18.6,-17147,18.6,-18793,18.6,-26207,18.6,-19806,18.6,-18039,18.6,-20019,18.6,-18933,18.6,-18289,18.6,-16470,18.6,-19624,18.6,-19305,18.6,-20802,18.6,-24706,18.6,-22561,18.6,-22702,18.6,-19169,18.6,-19443,18.6,-24563,18.6,-23065,18.6,-23652,18.6,-20164,18.6,-26138,18.6,-18045,18.6,-26204,18.6,-26192,18.6,-26192,18.6,-24201,18.6,-15673,18.6,-26207,18.6,-26192,18.6,-26192,0
18.7,-17691,18.7,-19857,18.7,-19155,18.7,-26210,18.7,-15640,18.7,-17125,18.7,-18788,18.7,-26204,18.7,-19750,18.7,-17996,18.7,-19979,18.7,-18911,18.7,-18266,18.7,-16478,18.7,-19612,18.7,-19298,18.7,-20855,18.7,-24741,18.7,-22562,18.7,-22691,18.7,-19172,18.7,-19429,18.7,-24549,18.7,-23057,18.7,-23623,18.7,-20143,18.7,-26132,18.7,-18009,18.7,-26196,18.7,-26187,18.7,-26187,18.7,-24124,18.7,-15650,18.7,-26219,18.7,-26194,18.7,-26194,0
18.8,-17662,18.8,-19819,18.8,-19125,18.8,-26213,18.8,-15613,18.8,-17119,18.8,-18750,18.8,-26211,18.8,-19739,18.8,-17975,18.8,-19939,18.8,-18883,18.8,-18230,18.8,-16349,18.8,-19538,18.8,-19256,18.8,-20749,18.8,-24686,18.8,-22509,18.8,-22624,18.8,-19086,18.8,-19470,18.8,-24570,18.8,-23057,18.8,-23643,18.8,-20166,18.8,-26150,18.8,-17975,18.8,-26206,18.8,-26186,18.8,-26186,18.8,-24141,18.8,-15614,18.8,-26210,18.8,-26191,18.8,-26191,0
18.9,-17638,18.9,-19811,18.9,-19068,18.9,-26217,18.9,-15571,18.9,-17075,18.9,-18711,18.9,-26195,18.9,-19705,18.9,-17898,18.9,-19870,18.9,-18812,18.9,-18222,18.9,-16403,18.9,-19546,18.9,-19226,18.9,-20713,18.9,-24679,18.9,-22453,18.9,-22591,18.9,-19039,18.9,-19337,18.9,-24490,18.9,-22978,18.9,-23564,18.9,-20119,18.9,-26106,18.9,-17921,18.9,-26210,18.9,-26191,18.9,-26191,18.9,-24136,18.9,-15601,18.9,-26213,18.9,-26191,18.9,-26191,0
19,-17600,19,-19761,19,-19031,19,-26216,19,-15481,19,-16945,19,-18634,19,-26167,19,-19669,19,-17873,19,-19838,19,-18756,19,-18179,19,-16394,19,-19531,19,-19204,19,-20666,19,-24650,19,-22419,19,-22545,19,-19027,19,-19392,19,-24558,19,-22994,19,-23605,19,-20115,19,-26176,19,-17893,19,-26203,19,-26187,19,-26187,19,-24111,19,-15539,19,-26202,19,-26199,19,-26199,0
19.1,-17591,19.1,-19762,19.1,-18993,19.1,-26222,19.1,-15540,19.1,-17040,19.1,-18657,19.1,-26212,19.1,-19685,19.1,-17880,19.1,-19881,19.1,-18782,19.1,-18163,19.1,-16339,19.1,-19547,19.1,-19189,19.1,-20725,19.1,-24733,19.1,-22519,19.1,-22635,19.1,-19073,19.1,-19394,19.1,-24528,19.1,-23022,19.1,-23607,19.1,-20150,19.1,-26139,19.1,-17943,19.1,-26200,19.1,-26194,19.1,-26194,19.1,-24149,19.1,-15620,19.1,-26212,19.1,-26193,19.1,-26193,0
19.2,-17630,19.2,-19794,19.2,-19036,19.2,-26214,19.2,-15574,19.2,-17075,19.2,-18698,19.2,-26206,19.2,-19709,19.2,-17896,19.2,-19900,19.2,-18819,19.2,-18221,19.2,-16397,19.2,-19556,19.2,-19223,19.2,-20709,19.2,-24725,19.2,-22532,19.2,-22646,19.2,-19095,19.2,-19398,19.2,-24527,19.2,-23034,19.2,-23623,19.2,-20157,19.2,-26135,19.2,-18027,19.2,-26211,19.2,-26186,19.2,-26186,19.2,-24174,19.2,-15603,19.2,-26206,19.2,-26193,19.2,-26193,0
19.3,-17653,19.3,-19792,19.3,-19082,19.3,-26195,19.3,-15598,19.3,-17113,19.3,-18730,19.3,-26201,19.3,-19761,19.3,-17949,19.3,-19940,19.3,-18837,19.3,-18232,19.3,-16371,19.3,-19574,19.3,-19241,19.3,-20730,19.3,-24701,19.3,-22538,19.3,-22677,19.3,-19100,19.3,-19377,19.3,-24528,19.3,-23011,19.3,-23601,19.3,-20117,19.3,-26102,19.3,-18011,19.3,-26209,19.3,-26192,19.3,-26192,19.3,-24185,19.3,-15658,19.3,-26223,19.3,-26197,19.3,-26197,0
19.4,-17667,19.4,-19833,19.4,-19110,19.4,-26200,19.4,-15626,19.4,-17125,19.4,-18742,19.4,-26211,19.4,-19753,19.4,-17967,19.4,-19963,19.4,-18864,19.4,-18233,19.4,-16372,19.4,-19554,19.4,-19234,19.4,-20782,19.4,-24709,19.4,-22527,19.4,-22666,19.4,-19125,19.4,-19408,19.4,-24574,19.4,-23049,19.4,-23605,19.4,-20146,19.4,-26177,19.4,-18015,19.4,-26210,19.4,-26183,19.4,-26183,19.4,-24198,19.4,-15637,19.4,-26211,19.4,-26198,19.4,-26198,0
19.5,-17688,19.5,-19839,19.5,-19083,19.5,-26204,19.5,-15581,19.5,-17100,19.5,-18721,19.5,-26185,19.5,-19732,19.5,-17918,19.5,-19907,19.5,-18854,19.5,-18186,19.5,-16356,19.5,-19539,19.5,-19218,19.5,-20816,19.5,-24763,19.5,-22539,19.5,-22626,19.5,-19122,19.5,-19390,19.5,-24550,19.5,-22997,19.5,-23607,19.5,-20135,19.5,-26110,19.5,-17982,19.5,-26201,19.5,-26192,19.5,-26192,19.5,-24147,19.5,-15631,19.5,-26209,19.5,-26188,19.5,-26188,0
19.6,-17639,19.6,-19808,19.6,-19068,19.6,-26197,19.6,-15613,19.6,-17113,19.6,-18728,19.6,-26230,19.6,-19701,19.6,-17896,19.6,-19883,19.6,-18791,19.6,-18216,19.6,-16347,19.6,-19538,19.6,-19204,19.6,-20778,19.6,-24711,19.6,-22522,19.6,-22655,19.6,-19103,19.6,-19395,19.6,-24552,19.6,-23027,19.6,-23606,19.6,-20119,19.6,-26156,19.6,-17980,19.6,-26228,19.6,-26192,19.6,-26192,19.6,-24166,19.6,-15590,19.6,-26209,19.6,-26194,19.6,-26194,0
19.7,-17617,19.7,-19793,19.7,-19020,19.7,-26194,19.7,-15603,19.7,-17101,19.7,-18707,19.7,-26219,19.7,-19690,19.7,-17859,19.7,-19847,19.7,-18797,19.7,-18205,19.7,-16350,19.7,-19513,19.7,-19176,19.7,-20717,19.7,-24713,19.7,-22494,19.7,-22579,19.7,-19040,19.7,-19433,19.7,-24604,19.7,-23017,19.7,-23636,19.7,-20135,19.7,-26176,19.7,-17932,19.7,-26214,19.7,-26189,19.7,-26189,19.7,-24148,19.7,-15557,19.7,-26198,19.7,-26189,19.7,-26189,0
19.8,-17597,19.8,-19770,19.8,-19003,19.8,-26219,19.8,-15506,19.8,-17050,19.8,-18637,19.8,-26196,19.8,-19649,19.8,-17819,19.8,-19812,19.8,-18731,19.8,-18119,19.8,-16285,19.8,-19475,19.8,-19134,19.8,-20713,19.8,-24710,19.8,-22460,19.8,-22568,19.8,-19025,19.8,-19252,19.8,-24487,19.8,-22937,19.8,-23547,19.8,-20083,19.8,-26102,19.8,-17861,19.8,-26205,19.8,-26194,19.8,-26194,19.8,-24101,19.8,-15543,19.8,-26224,19.8,-26192,19.8,-26192,1
19.9,-17518,19.9,-19686,19.9,-18937,19.9,-26209,19.9,-15509,19.9,-17029,19.9,-18646,19.9,-26218,19.9,-19622,19.9,-17811,19.9,-19813,19.9,-18682,19.9,-18156,19.9,-16334,19.9,-19515,19.9,-19130,19.9,-20726,19.9,-24720,19.9,-22475,19.9,-22596,19.9,-19010,19.9,-19327,19.9,-24550,19.9,-22978,19.9,-23586,19.9,-20079,19.9,-26155,19.9,-17865,19.9,-26212,19.9,-26192,19.9,-26192,19.9,-24097,19.9,-15521,19.9,-26209,19.9,-26199,19.9,-26199,0
20,-17559,20,-19755,20,-18980,20,-26204,20,-15557,20,-17082,20,-18655,20,-26232,20,-19662,20,-17826,20,-19840,20,-18747,20,-18150,20,-16310,20,-19505,20,-19118,20,-20712,20,-24694,20,-22515,20,-22626,20,-19042,20,-19393,20,-24586,20,-23078,20,-23667,20,-20099,20,-26183,20,-17949,20,-26203,20,-26188,20,-26188,20,-24170,20,-15581,20,-26214,20,-26188,20,-26188,0
20.1,-17632,20.1,-19811,20.1,-19022,20.1,-26211,20.1,-15529,20.1,-17062,20.1,-18659,20.1,-26204,20.1,-19724,20.1,-17885,20.1,-19880,20.1,-18806,20.1,-18189,20.1,-16348,20.1,-19563,20.1,-19170,20.1,-20798,20.1,-24770,20.1,-22554,20.1,-22688,20.1,-19093,20.1,-19367,20.1,-24574,20.1,-23041,20.1,-23648,20.1,-20086,20.1,-26165,20.1,-18005,20.1,-26222,20.1,-26193,20.1,-26193,20.1,-24216,20.1,-15601,20.1,-26223,20.1,-26203,20.1,-26203,0
20.2,-17657,20.2,-19830,20.2,-19049,20.2,-26211,20.2,-15547,20.2,-17079,20.2,-18668,20.2,-26185,20.2,-19715,20.2,-17898,20.2,-19898,20.2,-18811,20.2,-18163,20.2,-16284,20.2,-19497,20.2,-19172,20.2,-20736,20.2,-24699,20.2,-22546,20.2,-22667,20.2,-19072,20.2,-19376,20.2,-24523,20.2,-23018,20.2,-23648,20.2,-20123,20.2,-26122,20.2,-17975,20.2,-26206,20.2,-26181,20.2,-26181,20.2,-24169,20.2,-15621,20.2,-26216,20.2,-26195,20.2,-26195,0
20.3,-17655,20.3,-19849,20.3,-19043,20.3,-26208,20.3,-15592,20.3,-17107,20.3,-18708,20.3,-26207,20.3,-19737,20.3,-17883,20.3,-19878,20.3,-18802,20.3,-18209,20.3,-16335,20.3,-19527,20.3,-19185,20.3,-20730,20.3,-24703,20.3,-22498,20.3,-22654,20.3,-19071,20.3,-19290,20.3,-24497,20.3,-22980,20.3,-23566,20.3,-20075,20.3,-26100,20.3,-17976,20.3,-26208,20.3,-26189,20.3,-26189,20.3,-24154,20.3,-15578,20.3,-26204,20.3,-26192,20.3,-26192,0
20.4,-17643,20.4,-19805,20.4,-19033,20.4,-26201,20.4,-15574,20.4,-17121,20.4,-18693,20.4,-26214,20.4,-19743,20.4,-17878,20.4,-19860,20.4,-18782,20.4,-18185,20.4,-16344,20.4,-19540,20.4,-19154,20.4,-20780,20.4,-24744,20.4,-22544,20.4,-22655,20.4,-19090,20.4,-19322,20.4,-24498,20.4,-22994,20.4,-23590,20.4,-20076,20.4,-26108,20.4,-17953,20.4,-26204,20.4,-26191,20.4,-26191,20.4,-24157,20.4,-15599,20.4,-26220,20.4,-26186,20.4,-26186,0
20.5,-17598,20.5,-19773,20.5,-19012,20.5,-26197,20.5,-15524,20.5,-17071,20.5,-18666,20.5,-26198,20.5,-19686,20.5,-17874,20.5,-19867,20.5,-18780,20.5,-18198,20.5,-16335,20.5,-19526,20.5,-19164,20.5,-20685,20.5,-24660,20.5,-22432,20.5,-22596,20.5,-19012,20.5,-19265,20.5,-24494,20.5,-22932,20.5,-23537,20.5,-20041,20.5,-26102,20.5,-17900,20.5,-26218,20.5,-26185,20.5,-26185,20.5,-24135,20.5,-15563,20.5,-26222,20.5,-26193,20.5,-26193,0
20.6,-17577,20.6,-19788,20.6,-18973,20.6,-26202,20.6,-15518,20.6,-17070,20.6,-18650,20.6,-26221,20.6,-19683,20.6,-17841,20.6,-19848,20.6,-18717,20.6,-18142,20.6,-16288,20.6,-19494,20.6,-19127,20.6,-20645,20.6,-24685,20.6,-22455,20.6,-22558,20.6,-18978,20.6,-19279,20.6,-24496,20.6,-22950,20.6,-23595,20.6,-20087,20.6,-26122,20.6,-17864,20.6,-26206,20.6,-26193,20.6,-26193,20.6,-24123,20.6,-15515,20.6,-26221,20.6,-26187,20.6,-26187,0
20.7,-17531,20.7,-19740,20.7,-18925,20.7,-26205,20.7,-15497,20.7,-17040,20.7,-18598,20.7,-26206,20.7,-19646,20.7,-17825,20.7,-19812,20.7,-18698,20.7,-18101,20.7,-16233,20.7,-19454,20.7,-19109,20.7,-20656,20.7,-24630,20.7,-22422,20.7,-22574,20.7,-18963,20.7,-19307,20.7,-24533,20.7,-23012,20.7,-23612,20.7,-20061,20.7,-26171,20.7,-17864,20.7,-26216,20.7,-26190,20.7,-26190,20.7,-24146,20.7,-15506,20.7,-26204,20.7,-26187,20.7,-26187,0
20.8,-17582,20.8,-19788,20.8,-18943,20.8,-26213,20.8,-15549,20.8,-17070,20.8,-18662,20.8,-26228,20.8,-19671,20.8,-17819,20.8,-19817,20.8,-18759,20.8,-18158,20.8,-16322,20.8,-19517,20.8,-19142,20.8,-20673,20.8,-24684,20.8,-22497,20.8,-22631,20.8,-19020,20.8,-19357,20.8,-24554,20.8,-23051,20.8,-23649,20.8,-20097,20.8,-26159,20.8,-17932,20.8,-26207,20.8,-26188,20.8,-26188,20.8,-24133,20.8,-15566,20.8,-26209,20.8,-26192,20.8,-26192,0
20.9,-17646,20.9,-19841,20.9,-19024,20.9,-26208,20.9,-15585,20.9,-17130,20.9,-18702,20.9,-26216,20.9,-19742,20.9,-17916,20.9,-19904,20.9,-18802,20.9,-18186,20.9,-16319,20.9,-19518,20.9,-19169,20.9,-20750,20.9,-24738,20.9,-22587,20.9,-22715,20.9,-19065,20.9,-19313,20.9,-24550,20.9,-23032,20.9,-23638,20.9,-20105,20.9,-26146,20.9,-18024,20.9,-26211,20.9,-26193,20.9,-26193,20.9,-24198,20.9,-15580,20.9,-26203,20.9,-26189,20.9,-26189,0
21,-17688,21,-19870,21,-19071,21,-26212,21,-15609,21,-17145,21,-18717,21,-26218,21,-19743,21,-17911,21,-19922,21,-18829,21,-18206,21,-16290,21,-19523,21,-19181,21,-20744,21,-24711,21,-22536,21,-22699,21,-19097,21,-19335,21,-24527,21,-23002,21,-23594,21,-20106,21,-26116,21,-17998,21,-26208,21,-26190,21,-26190,21,-24177,21,-15593,21,-26206,21,-26183,21,-26183,0
21.1,-17705,21.1,-19882,21.1,-19083,21.1,-26213,21.1,-15608,21.1,-17165,21.1,-18719,21.1,-26219,21.1,-19762,21.1,-17912,21.1,-19886,21.1,-18837,21.1,-18228,21.1,-16398,21.1,-19573,21.1,-19172,21.1,-20787,21.1,-24715,21.1,-22562,21.1,-22682,21.1,-19107,21.1,-19348,21.1,-24541,21.1,-23010,21.1,-23599,21.1,-20125,21.1,-26131,21.1,-18001,21.1,-26208,21.1,-26187,21.1,-26187,21.1,-24191,21.1,-15611,21.1,-26220,21.1,-26181,21.1,-26181,0
21.2,-17692,21.2,-19890,21.2,-19086,21.2,-26221,21.2,-15553,21.2,-17088,21.2,-18706,21.2,-26197,21.2,-19779,21.2,-17930,21.2,-19917,21.2,-18861,21.2,-18212,21.2,-16371,21.2,-19553,21.2,-19190,21.2,-20682,21.2,-24702,21.2,-22549,21.2,-22665,21.2,-19051,21.2,-19286,21.2,-24502,21.2,-23008,21.2,-23570,21.2,-20099,21.2,-26110,21.2,-17953,21.2,-26207,21.2,-26193,21.2,-26193,21.2,-24137,21.2,-15587,21.2,-26201,21.2,-26195,21.2,-26195,0
21.3,-17649,21.3,-19847,21.3,-19054,21.3,-26209,21.3,-15578,21.3,-17105,21.3,-18717,21.3,-26222,21.3,-19712,21.3,-17884,21.3,-19869,21.3,-18796,21.3,-18188,21.3,-16339,21.3,-19546,21.3,-19177,21.3,-20764,21.3,-24727,21.3,-22516,21.3,-22660,21.3,-19081,21.3,-19370,21.3,-24571,21.3,-23029,21.3,-23652,21.3,-20089,21.3,-26183,21.3,-17958,21.3,-26224,21.3,-26191,21.3,-26191,21.3,-24170,21.3,-15573,21.3,-26200,21.3,-26188,21.3,-26188,0
21.4,-17639,21.4,-19816,21.4,-19042,21.4,-26223,21.4,-15567,21.4,-17106,21.4,-18710,21.4,-26228,21.4,-19715,21.4,-17865,21.4,-19857,21.4,-18765,21.4,-18189,21.4,-16375,21.4,-19547,21.4,-19178,21.4,-20731,21.4,-24706,21.4,-22527,21.4,-22631,21.4,-19055,21.4,-19340,21.4,-24573,21.4,-23031,21.4,-23630,21.4,-20075,21.4,-26196,21.4,-17907,21.4,-26210,21.4,-26193,21.4,-26193,21.4,-24123,21.4,-15583,21.4,-26224,21.4,-26190,21.4,-26190,0
21.5,-17561,21.5,-19778,21.5,-18973,21.5,-26188,21.5,-15521,21.5,-17053,21.5,-18662,21.5,-26211,21.5,-19669,21.5,-17855,21.5,-19835,21.5,-18749,21.5,-18170,21.5,-16340,21.5,-19519,21.5,-19143,21.5,-20617,21.5,-24659,21.5,-22427,21.5,-22537,21.5,-18973,21.5,-19358,21.5,-24534,21.5,-23023,21.5,-23610,21.5,-20087,21.5,-26134,21.5,-17871,21.5,-26202,21.5,-26188,21.5,-26188,21.5,-24115,21.5,-15506,21.5,-26201,21.5,-26192,21.5,-26192,0
21.6,-17593,21.6,-19787,21.6,-18987,21.6,-26204,21.6,-15527,21.6,-17061,21.6,-18672,21.6,-26218,21.6,-19683,21.6,-17847,21.6,-19850,21.6,-18770,21.6,-18157,21.6,-16299,21.6,-19518,21.6,-19167,21.6,-20804,21.6,-24739,21.6,-22571,21.6,-22700,21.6,-19101,21.6,-19384,21.6,-24569,21.6,-23040,21.6,-23624,21.6,-20109,21.6,-26126,21.6,-17994,21.6,-26215,21.6,-26195,21.6,-26195,21.6,-24236,21.6,-15612,21.6,-26227,21.6,-26191,21.6,-26191,0
21.7,-17657,21.7,-19866,21.7,-19058,21.7,-26206,21.7,-15581,21.7,-17126,21.7,-18715,21.7,-26196,21.7,-19761,21.7,-17927,21.7,-19932,21.7,-18859,21.7,-18220,21.7,-16361,21.7,-19559,21.7,-19199,21.7,-20800,21.7,-24745,21.7,-22596,21.7,-22758,21.7,-19150,21.7,-19343,21.7,-24504,21.7,-22989,21.7,-23591,21.7,-20134,21.7,-26077,21.7,-18031,21.7,-26215,21.7,-26184,21.7,-26184,21.7,-24210,21.7,-15629,21.7,-26215,21.7,-26195,21.7,-26195,0
21.8,-17714,21.8,-19913,21.8,-19107,21.8,-26219,21.8,-15615,21.8,-17152,21.8,-18757,21.8,-26214,21.8,-19785,21.8,-17945,21.8,-19941,21.8,-18852,21.8,-18250,21.8,-16437,21.8,-19606,21.8,-19213,21.8,-20825,21.8,-24775,21.8,-22587,21.8,-22742,21.8,-19144,21.8,-19379,21.8,-24544,21.8,-23048,21.8,-23632,21.8,-20159,21.8,-26127,21.8,-18021,21.8,-26195,21.8,-26193,21.8,-26193,21.8,-24195,21.8,-15672,21.8,-26234,21.8,-26191,21.8,-26191,0
21.9,-17742,21.9,-19954,21.9,-19150,21.9,-26219,21.9,-15614,21.9,-17172,21.9,-18750,21.9,-26198,21.9,-19800,21.9,-17964,21.9,-19941,21.9,-18908,21.9,-18246,21.9,-16397,21.9,-19593,21.9,-19249,21.9,-20783,21.9,-24706,21.9,-22566,21.9,-22729,21.9,-19148,21.9,-19428,21.9,-24529,21.9,-23055,21.9,-23649,21.9,-20154,21.9,-26117,21.9,-18061,21.9,-26212,21.9,-26205,21.9,-26205,21.9,-24208,21.9,-15638,21.9,-26208,21.9,-26185,21.9,-26185,0
22,-17721,22,-19916,22,-19127,22,-26223,22,-15593,22,-17125,22,-18773,22,-26201,22,-19770,22,-17937,22,-19926,22,-18907,22,-18224,22,-16365,22,-19537,22,-19193,22,-20733,22,-24720,22,-22540,22,-22671,22,-19103,22,-19352,22,-24490,22,-23017,22,-23624,22,-20135,22,-26106,22,-18010,22,-26207,22,-26188,22,-26188,22,-24168,22,-15628,22,-26205,22,-26200,22,-26200,0
22.1,-17703,22.1,-19913,22.1,-19122,22.1,-26210,22.1,-15597,22.1,-17138,22.1,-18768,22.1,-26198,22.1,-19775,22.1,-17935,22.1,-19922,22.1,-18871,22.1,-18230,22.1,-16379,22.1,-19549,22.1,-19237,22.1,-20767,22.1,-24717,22.1,-22536,22.1,-22653,22.1,-19115,22.1,-19407,22.1,-24555,22.1,-23031,22.1,-23644,22.1,-20136,22.1,-26161,22.1,-17972,22.1,-26200,22.1,-26190,22.1,-26190,22.1,-24161,22.1,-15625,22.1,-26217,22.1,-26193,22.1,-26193,0
22.2,-17674,22.2,-19876,22.2,-19076,22.2,-26224,22.2,-15562,22.2,-17108,22.2,-18736,22.2,-26208,22.2,-19745,22.2,-17910,22.2,-19903,22.2,-18849,22.2,-18205,22.2,-16358,22.2,-19527,22.2,-19223,22.2,-20839,22.2,-24762,22.2,-22577,22.2,-22675,22.2,-19142,22.2,-19410,22.2,-24599,22.2,-23040,22.2,-23657,22.2,-20129,22.2,-26191,22.2,-17949,22.2,-26211,22.2,-26185,22.2,-26185,22.2,-24141,22.2,-15583,22.2,-26213,22.2,-26189,22.2,-26189,0
22.3,-17630,22.3,-19851,22.3,-19048,22.3,-26217,22.3,-15577,22.3,-17103,22.3,-18722,22.3,-26229,22.3,-19684,22.3,-17866,22.3,-19860,22.3,-18788,22.3,-18208,22.3,-16374,22.3,-19549,22.3,-19182,22.3,-20809,22.3,-24739,22.3,-22510,22.3,-22665,22.3,-19106,22.3,-19345,22.3,-24545,22.3,-23003,22.3,-23602,22.3,-20096,22.3,-26118,22.3,-17905,22.3,-26207,22.3,-26191,22.3,-26191,22.3,-24115,22.3,-15577,22.3,-26228,22.3,-26177,22.3,-26177,0
22.4,-17583,22.4,-19802,22.4,-18988,22.4,-26208,22.4,-15521,22.4,-17035,22.4,-18674,22.4,-26207,22.4,-19690,22.4,-17869,22.4,-19871,22.4,-18804,22.4,-18167,22.4,-16329,22.4,-19526,22.4,-19141,22.4,-20744,22.4,-24731,22.4,-22516,22.4,-22666,22.4,-19071,22.4,-19313,22.4,-24496,22.4,-22991,22.4,-23580,22.4,-20088,22.4,-26107,22.4,-17933,22.4,-26209,22.4,-26185,22.4,-26185,22.4,-24143,22.4,-15573,22.4,-26205,22.4,-26193,22.4,-26193,0
22.5,-17616,22.5,-19818,22.5,-19056,22.5,-26201,22.5,-15540,22.5,-17068,22.5,-18693,22.5,-26197,22.5,-19759,22.5,-17931,22.5,-19923,22.5,-18864,22.5,-18192,22.5,-16311,22.5,-19531,22.5,-19217,22.5,-20790,22.5,-24725,22.5,-22573,22.5,-22706,22.5,-19123,22.5,-19445,22.5,-24581,22.5,-23091,22.5,-23681,22.5,-20129,22.5,-26162,22.5,-18020,22.5,-26215,22.5,-26194,22.5,-26194,22.5,-24186,22.5,-15628,22.5,-26215,22.5,-26194,22.5,-26194,0
22.6,-17656,22.6,-19885,22.6,-19121,22.6,-26189,22.6,-15583,22.6,-17109,22.6,-18746,22.6,-26204,22.6,-19801,22.6,-17957,22.6,-19967,22.6,-18922,22.6,-18232,22.6,-16380,22.6,-19587,22.6,-19249,22.6,-20867,22.6,-24736,22.6,-22626,22.6,-22733,22.6,-19187,22.6,-19392,22.6,-24525,22.6,-23012,22.6,-23618,22.6,-20150,22.6,-26113,22.6,-18056,22.6,-26210,22.6,-26196,22.6,-26196,22.6,-24219,22.6,-15662,22.6,-26227,22.6,-26196,22.6,-26196,0
22.7,-17715,22.7,-19915,22.7,-19122,22.7,-26210,22.7,-15605,22.7,-17124,22.7,-18786,22.7,-26225,22.7,-19819,22.7,-17962,22.7,-19955,22.7,-18929,22.7,-18246,22.7,-16354,22.7,-19571,22.7,-19246,22.7,-20837,22.7,-24740,22.7,-22602,22.7,-22746,22.7,-19174,22.7,-19433,22.7,-24565,22.7,-23062,22.7,-23667,22.7,-20162,22.7,-26159,22.7,-18048,22.7,-26210,22.7,-26187,22.7,-26187,22.7,-24175,22.7,-15648,22.7,-26217,22.7,-26178,22.7,-26178,0
22.8,-17666,22.8,-19877,22.8,-19111,22.8,-26193,22.8,-15605,22.8,-17129,22.8,-18773,22.8,-26217,22.8,-19783,22.8,-17942,22.8,-19956,22.8,-18917,22.8,-18262,22.8,-16374,22.8,-19591,22.8,-19260,22.8,-20806,22.8,-24706,22.8,-22572,22.8,-22728,22.8,-19162,22.8,-19391,22.8,-24597,22.8,-23037,22.8,-23646,22.8,-20135,22.8,-26181,22.8,-18037,22.8,-26197,22.8,-26193,22.8,-26193,22.8,-24191,22.8,-15639,22.8,-26208,22.8,-26197,22.8,-26197,0
22.9,-17679,22.9,-19876,22.9,-19126,22.9,-26209,22.9,-15564,22.9,-17103,22.9,-18765,22.9,-26207,22.9,-19807,22.9,-17944,22.9,-19949,22.9,-18915,22.9,-18233,22.9,-16329,22.9,-19568,22.9,-19260,22.9,-20790,22.9,-24747,22.9,-22546,22.9,-22696,22.9,-19145,22.9,-19363,22.9,-24542,22.9,-23042,22.9,-23636,22.9,-20130,22.9,-26148,22.9,-18018,22.9,-26209,22.9,-26192,22.9,-26192,22.9,-24180,22.9,-15607,22.9,-26211,22.9,-26192,22.9,-26192,0
23,-17662,23,-19866,23,-19099,23,-26222,23,-15560,23,-17079,23,-18756,23,-26224,23,-19733,23,-17910,23,-19922,23,-18865,23,-18187,23,-16349,23,-19521,23,-19230,23,-20736,23,-24688,23,-22532,23,-22653,23,-19105,23,-19261,23,-24468,23,-22944,23,-23529,23,-20086,23,-26108,23,-17981,23,-26210,23,-26188,23,-26188,23,-24151,23,-15578,23,-26209,23,-26194,23,-26194,0
23.1,-17625,23.1,-19824,23.1,-19066,23.1,-26229,23.1,-15538,23.1,-17064,23.1,-18709,23.1,-26224,23.1,-19713,23.1,-17875,23.1,-19875,23.1,-18844,23.1,-18187,23.1,-16319,23.1,-19527,23.1,-19205,23.1,-20742,23.1,-24673,23.1,-22498,23.1,-22624,23.1,-19058,23.1,-19374,23.1,-24518,23.1,-23014,23.1,-23620,23.1,-20105,23.1,-26135,23.1,-17926,23.1,-26218,23.1,-26190,23.1,-26190,23.1,-24152,23.1,-15560,23.1,-26219,23.1,-26187,23.1,-26187,0
23.2,-17566,23.2,-19785,23.2,-19002,23.2,-26227,23.2,-15495,23.2,-17033,23.2,-18701,23.2,-26209,23.2,-19719,23.2,-17881,23.2,-19873,23.2,-18796,23.2,-18155,23.2,-16307,23.2,-19519,23.2,-19164,23.2,-20700,23.2,-24661,23.2,-22476,23.2,-22588,23.2,-19035,23.2,-19325,23.2,-24567,23.2,-22980,23.2,-23578,23.2,-20046,23.2,-26153,23.2,-17883,23.2,-26210,23.2,-26193,23.2,-26193,23.2,-24135,23.2,-15502,23.2,-26207,23.2,-26187,23.2,-26187,0
23.3,-17540,23.3,-19728,23.3,-18995,23.3,-26218,23.3,-15495,23.3,-17002,23.3,-18643,23.3,-26222,23.3,-19656,23.3,-17840,23.3,-19865,23.3,-18790,23.3,-18145,23.3,-16238,23.3,-19493,23.3,-19181,23.3,-20748,23.3,-24729,23.3,-22557,23.3,-22676,23.3,-19078,23.3,-19380,23.3,-24556,23.3,-23028,23.3,-23670,23.3,-20115,23.3,-26160,23.3,-17954,23.3,-26223,23.3,-26188,23.3,-26188,23.3,-24187,23.3,-15571,23.3,-26215,23.3,-26197,23.3,-26197,0
23.4,-17612,23.4,-19833,23.4,-19020,23.4,-26210,23.4,-15502,23.4,-17038,23.4,-18671,23.4,-26199,23.4,-19739,23.4,-17914,23.4,-19924,23.4,-18843,23.4,-18167,23.4,-16259,23.4,-19517,23.4,-19185,23.4,-20766,23.4,-24743,23.4,-22574,23.4,-22700,23.4,-19118,23.4,-19289,23.4,-24544,23.4,-23021,23.4,-23635,23.4,-20084,23.4,-26138,23.4,-18022,23.4,-26225,23.4,-26190,23.4,-26190,23.4,-24226,23.4,-15628,23.4,-26228,23.4,-26192,23.4,-26192,0
23.5,-17639,23.5,-19842,23.5,-19090,23.5,-26214,23.5,-15538,23.5,-17079,23.5,-18719,23.5,-26221,23.5,-19755,23.5,-17893,23.5,-19925,23.5,-18876,23.5,-18204,23.5,-16311,23.5,-19555,23.5,-19243,23.5,-20823,23.5,-24762,23.5,-22591,23.5,-22733,23.5,-19166,23.5,-19354,23.5,-24547,23.5,-23029,23.5,-23629,23.5,-20112,23.5,-26111,23.5,-18037,23.5,-26232,23.5,-26197,23.5,-26197,23.5,-24238,23.5,-15594,23.5,-26210,23.5,-26187,23.5,-26187,0
23.6,-17642,23.6,-19852,23.6,-19079,23.6,-26210,23.6,-15512,23.6,-17037,23.6,-18676,23.6,-26199,23.6,-19754,23.6,-17927,23.6,-19928,23.6,-18890,23.6,-18206,23.6,-16338,23.6,-19574,23.6,-19214,23.6,-20849,23.6,-24754,23.6,-22602,23.6,-22736,23.6,-19164,23.6,-19364,23.6,-24522,23.6,-23013,23.6,-23603,23.6,-20095,23.6,-26087,23.6,-18021,23.6,-26219,23.6,-26190,23.6,-26190,23.6,-24225,23.6,-15591,23.6,-26204,23.6,-26184,23.6,-26184,0
23.7,-17615,23.7,-19813,23.7,-19054,23.7,-26204,23.7,-15499,23.7,-17065,23.7,-18680,23.7,-26202,23.7,-19747,23.7,-17883,23.7,-19898,23.7,-18854,23.7,-18183,23.7,-16308,23.7,-19541,23.7,-19199,23.7,-20783,23.7,-24696,23.7,-22575,23.7,-22676,23.7,-19123,23.7,-19305,23.7,-24490,23.7,-22935,23.7,-23573,23.7,-20113,23.7,-26091,23.7,-17999,23.7,-26221,23.7,-26191,23.7,-26191,23.7,-24207,23.7,-15572,23.7,-26203,23.7,-26186,23.7,-26186,0
23.8,-17567,23.8,-19783,23.8,-19035,23.8,-26193,23.8,-15498,23.8,-17048,23.8,-18670,23.8,-26217,23.8,-19702,23.8,-17870,23.8,-19876,23.8,-18821,23.8,-18145,23.8,-16261,23.8,-19517,23.8,-19181,23.8,-20811,23.8,-24764,23.8,-22567,23.8,-22654,23.8,-19135,23.8,-19401,23.8,-24564,23.8,-23005,23.8,-23624,23.8,-20125,23.8,-26162,23.8,-17957,23.8,-26211,23.8,-26191,23.8,-26191,23.8,-24176,23.8,-15583,23.8,-26218,23.8,-26188,23.8,-26188,0
23.9,-17543,23.9,-19771,23.9,-19008,23.9,-26202,23.9,-15449,23.9,-16990,23.9,-18657,23.9,-26194,23.9,-19674,23.9,-17826,23.9,-19857,23.9,-18764,23.9,-18095,23.9,-16206,23.9,-19482,23.9,-19150,23.9,-20769,23.9,-24711,23.9,-22551,23.9,-22642,23.9,-19101,23.9,-19366,23.9,-24581,23.9,-23022,23.9,-23639,23.9,-20110,23.9,-26185,23.9,-17927,23.9,-26222,23.9,-26188,23.9,-26188,23.9,-24167,23.9,-15532,23.9,-26226,23.9,-26190,23.9,-26190,0
24,-17514,24,-19725,24,-18962,24,-26194,24,-15444,24,-16971,24,-18633,24,-26213,24,-19667,24,-17834,24,-19857,24,-18744,24,-18098,24,-16202,24,-19472,24,-19127,24,-20689,24,-24684,24,-22484,24,-22609,24,-19001,24,-19294,24,-24516,24,-22963,24,-23567,24,-20058,24,-26137,24,-17849,24,-26209,24,-26189,24,-26189,24,-24095,24,-15488,24,-26206,24,-26195,24,-26195,4
24.1,-17472,24.1,-19706,24.1,-18933,24.1,-26208,24.1,-15417,24.1,-16908,24.1,-18605,24.1,-26208,24.1,-19621,24.1,-17775,24.1,-19806,24.1,-18704,24.1,-18086,24.1,-16252,24.1,-19490,24.1,-19098,24.1,-20663,24.1,-24700,24.1,-22506,24.1,-22586,24.1,-18984,24.1,-19263,24.1,-24530,24.1,-22947,24.1,-23593,24.1,-20045,24.1,-26171,24.1,-17865,24.1,-26215,24.1,-26193,24.1,-26193,24.1,-24169,24.1,-15525,24.1,-26226,24.1,-26185,24.1,-26185,0
24.2,-17477,24.2,-19715,24.2,-18927,24.2,-26185,24.2,-15427,24.2,-16946,24.2,-18602,24.2,-26200,24.2,-19668,24.2,-17815,24.2,-19855,24.2,-18775,24.2,-18140,24.2,-16270,24.2,-19515,24.2,-19140,24.2,-20739,24.2,-24751,24.2,-22554,24.2,-22701,24.2,-19072,24.2,-19326,24.2,-24556,24.2,-22998,24.2,-23601,24.2,-20078,24.2,-26142,24.2,-17927,24.2,-26205,24.2,-26194,24.2,-26194,24.2,-24163,24.2,-15542,24.2,-26218,24.2,-26189,24.2,-26189,0
24.3,-17583,24.3,-19805,24.3,-18998,24.3,-26221,24.3,-15461,24.3,-16979,24.3,-18642,24.3,-26208,24.3,-19711,24.3,-17873,24.3,-19923,24.3,-18828,24.3,-18150,24.3,-16273,24.3,-19531,24.3,-19172,24.3,-20791,24.3,-24729,24.3,-22601,24.3,-22719,24.3,-19119,24.3,-19335,24.3,-24534,24.3,-23016,24.3,-23645,24.3,-20085,24.3,-26122,24.3,-17975,24.3,-26205,24.3,-26189,24.3,-26189,24.3,-24194,24.3,-15578,24.3,-26214,24.3,-26191,24.3,-26191,0
24.4,-17569,24.4,-19790,24.4,-18991,24.4,-26196,24.4,-15471,24.4,-16998,24.4,-18659,24.4,-26201,24.4,-19711,24.4,-17887,24.4,-19900,24.4,-18824,24.4,-18147,24.4,-16226,24.4,-19492,24.4,-19159,24.4,-20778,24.4,-24717,24.4,-22578,24.4,-22690,24.4,-19107,24.4,-19402,24.4,-24547,24.4,-23036,24.4,-23639,24.4,-20103,24.4,-26129,24.4,-17967,24.4,-26206,24.4,-26198,24.4,-26198,24.4,-24192,24.4,-15563,24.4,-26214,24.4,-26188,24.4,-26188,0
24.5,-17590,24.5,-19772,24.5,-19039,24.5,-26215,24.5,-15499,24.5,-17003,24.5,-18668,24.5,-26227,24.5,-19738,24.5,-17874,24.5,-19898,24.5,-18838,24.5,-18115,24.5,-16250,24.5,-19509,24.5,-19137,24.5,-20717,24.5,-24733,24.5,-22560,24.5,-22674,24.5,-19073,24.5,-19322,24.5,-24526,24.5,-23010,24.5,-23610,24.5,-20096,24.5,-26124,24.5,-17983,24.5,-26207,24.5,-26194,24.5,-26194,24.5,-24213,24.5,-15588,24.5,-26228,24.5,-26193,24.5,-26193,0
24.6,-17575,24.6,-19771,24.6,-19023,24.6,-26213,24.6,-15463,24.6,-16999,24.6,-18663,24.6,-26202,24.6,-19699,24.6,-17857,24.6,-19901,24.6,-18801,24.6,-18134,24.6,-16203,24.6,-19487,24.6,-19156,24.6,-20761,24.6,-24738,24.6,-22569,24.6,-22679,24.6,-19080,24.6,-19348,24.6,-24558,24.6,-23026,24.6,-23602,24.6,-20093,24.6,-26167,24.6,-17940,24.6,-26201,24.6,-26189,24.6,-26189,24.6,-24150,24.6,-15545,24.6,-26198,24.6,-26189,24.6,-26189,0
24.7,-17537,24.7,-19729,24.7,-18972,24.7,-26188,24.7,-15455,24.7,-16961,24.7,-18634,24.7,-26193,24.7,-19698,24.7,-17854,24.7,-19878,24.7,-18818,24.7,-18102,24.7,-16236,24.7,-19502,24.7,-19151,24.7,-20685,24.7,-24685,24.7,-22507,24.7,-22633,24.7,-19028,24.7,-19359,24.7,-24542,24.7,-22993,24.7,-23604,24.7,-20071,24.7,-26132,24.7,-17902,24.7,-26207,24.7,-26189,24.7,-26189,24.7,-24146,24.7,-15506,24.7,-26197,24.7,-26182,24.7,-26182,0
24.8,-17507,24.8,-19704,24.8,-18973,24.8,-26199,24.8,-15447,24.8,-16942,24.8,-18608,24.8,-26220,24.8,-19611,24.8,-17769,24.8,-19807,24.8,-18717,24.8,-18093,24.8,-16235,24.8,-19468,24.8,-19109,24.8,-20686,24.8,-24707,24.8,-22511,24.8,-22602,24.8,-18986,24.8,-19246,24.8,-24483,24.8,-22947,24.8,-23562,24.8,-20026,24.8,-26117,24.8,-17887,24.8,-26211,24.8,-26191,24.8,-26191,24.8,-24150,24.8,-15510,24.8,-26219,24.8,-26182,24.8,-26182,0
24.9,-17452,24.9,-19690,24.9,-18926,24.9,-26189,24.9,-15399,24.9,-16897,24.9,-18576,24.9,-26202,24.9,-19616,24.9,-17743,24.9,-19782,24.9,-18705,24.9,-18062,24.9,-16260,24.9,-19470,24.9,-19087,24.9,-20642,24.9,-24658,24.9,-22448,24.9,-22556,24.9,-18967,24.9,-19255,24.9,-24528,24.9,-22962,24.9,-23565,24.9,-20047,24.9,-26130,24.9,-17839,24.9,-26198,24.9,-26184,24.9,-26184,24.9,-24120,24.9,-15480,24.9,-26221,24.9,-26197,24.9,-26197,0
25,-17511,25,-19710,25,-18918,25,-26215,25,-15435,25,-16914,25,-18594,25,-26215,25,-19657,25,-17826,25,-19860,25,-18759,25,-18099,25,-16234,25,-19492,25,-19113,25,-20705,25,-24712,25,-22564,25,-22653,25,-19044,25,-19300,25,-24501,25,-23004,25,-23599,25,-20063,25,-26115,25,-17955,25,-26208,25,-26190,25,-26190,25,-24211,25,-15551,25,-26209,25,-26197,25,-26197,0
25.1,-17596,25.1,-19756,25.1,-19013,25.1,-26224,25.1,-15476,25.1,-16988,25.1,-18648,25.1,-26211,25.1,-19688,25.1,-17859,25.1,-19910,25.1,-18825,25.1,-18102,25.1,-16188,25.1,-19485,25.1,-19137,25.1,-20823,25.1,-24768,25.1,-22620,25.1,-22773,25.1,-19121,25.1,-19298,25.1,-24515,25.1,-22983,25.1,-23603,25.1,-20085,25.1,-26131,25.1,-18017,25.1,-26215,25.1,-26194,25.1,-26194,25.1,-24217,25.1,-15600,25.1,-26213,25.1,-26191,25.1,-26191,0
25.2,-17629,25.2,-19804,25.2,-19036,25.2,-26210,25.2,-15503,25.2,-17007,25.2,-18664,25.2,-26214,25.2,-19681,25.2,-17851,25.2,-19905,25.2,-18825,25.2,-18153,25.2,-16244,25.2,-19519,25.2,-19179,25.2,-20759,25.2,-24703,25.2,-22613,25.2,-22700,25.2,-19103,25.2,-19263,25.2,-24517,25.2,-22989,25.2,-23593,25.2,-20059,25.2,-26118,25.2,-18022,25.2,-26208,25.2,-26194,25.2,-26194,25.2,-24227,25.2,-15603,25.2,-26209,25.2,-26187,25.2,-26187,0
25.3,-17670,25.3,-19825,25.3,-19061,25.3,-26211,25.3,-15510,25.3,-17012,25.3,-18681,25.3,-26213,25.3,-19715,25.3,-17888,25.3,-19915,25.3,-18859,25.3,-18136,25.3,-16266,25.3,-19508,25.3,-19178,25.3,-20781,25.3,-24716,25.3,-22597,25.3,-22732,25.3,-19115,25.3,-19324,25.3,-24519,25.3,-23009,25.3,-23629,25.3,-20089,25.3,-26160,25.3,-18030,25.3,-26193,25.3,-26186,25.3,-26186,25.3,-24201,25.3,-15621,25.3,-26205,25.3,-26195,25.3,-26195,0
25.4,-17679,25.4,-19821,25.4,-19094,25.4,-26224,25.4,-15535,25.4,-17010,25.4,-18689,25.4,-26206,25.4,-19713,25.4,-17880,25.4,-19905,25.4,-18828,25.4,-18135,25.4,-16275,25.4,-19531,25.4,-19175,25.4,-20677,25.4,-24670,25.4,-22566,25.4,-22644,25.4,-19064,25.4,-19410,25.4,-24594,25.4,-23049,25.4,-23677,25.4,-20129,25.4,-26194,25.4,-18015,25.4,-26206,25.4,-26188,25.4,-26188,25.4,-24157,25.4,-15623,25.4,-26222,25.4,-26191,25.4,-26191,0
25.5,-17624,25.5,-19767,25.5,-19051,25.5,-26214,25.5,-15509,25.5,-16992,25.5,-18691,25.5,-26216,25.5,-19719,25.5,-17887,25.5,-19904,25.5,-18835,25.5,-18121,25.5,-16194,25.5,-19459,25.5,-19153,25.5,-20751,25.5,-24697,25.5,-22537,25.5,-22675,25.5,-19089,25.5,-19325,25.5,-24545,25.5,-22992,25.5,-23584,25.5,-20094,25.5,-26130,25.5,-18002,25.5,-26216,25.5,-26193,25.5,-26193,25.5,-24185,25.5,-15609,25.5,-26231,25.5,-26204,25.5,-26204,0
25.6,-17582,25.6,-19741,25.6,-19029,25.6,-26201,25.6,-15489,25.6,-16966,25.6,-18674,25.6,-26211,25.6,-19665,25.6,-17828,25.6,-19859,25.6,-18807,25.6,-18107,25.6,-16219,25.6,-19472,25.6,-19151,25.6,-20733,25.6,-24709,25.6,-22555,25.6,-22637,25.6,-19052,25.6,-19227,25.6,-24489,25.6,-22944,25.6,-23549,25.6,-20033,25.6,-26103,25.6,-17978,25.6,-26222,25.6,-26184,25.6,-26184,25.6,-24182,25.6,-15554,25.6,-26204,25.6,-26196,25.6,-26196,0
25.7,-17558,25.7,-19728,25.7,-18969,25.7,-26198,25.7,-15495,25.7,-16965,25.7,-18650,25.7,-26220,25.7,-19635,25.7,-17806,25.7,-19833,25.7,-18757,25.7,-18084,25.7,-16270,25.7,-19490,25.7,-19122,25.7,-20701,25.7,-24717,25.7,-22500,25.7,-22593,25.7,-19018,25.7,-19311,25.7,-24551,25.7,-22990,25.7,-23609,25.7,-20053,25.7,-26169,25.7,-17913,25.7,-26206,25.7,-26188,25.7,-26188,25.7,-24134,25.7,-15534,25.7,-26215,25.7,-26190,25.7,-26190,0
25.8,-17544,25.8,-19713,25.8,-18956,25.8,-26214,25.8,-15436,25.8,-16916,25.8,-18563,25.8,-26198,25.8,-19634,25.8,-17817,25.8,-19829,25.8,-18746,25.8,-18094,25.8,-16241,25.8,-19475,25.8,-19115,25.8,-20705,25.8,-24701,25.8,-22518,25.8,-22586,25.8,-19026,25.8,-19335,25.8,-24514,25.8,-23006,25.8,-23620,25.8,-20082,25.8,-26112,25.8,-17968,25.8,-26207,25.8,-26187,25.8,-26187,25.8,-24183,25.8,-15560,25.8,-26214,25.8,-26195,25.8,-26195,0
25.9,-17587,25.9,-19746,25.9,-19022,25.9,-26197,25.9,-15506,25.9,-17002,25.9,-18642,25.9,-26203,25.9,-19703,25.9,-17887,25.9,-19900,25.9,-18815,25.9,-18121,25.9,-16240,25.9,-19479,25.9,-19160,25.9,-20779,25.9,-24714,25.9,-22567,25.9,-22702,25.9,-19084,25.9,-19338,25.9,-24487,25.9,-22990,25.9,-23617,25.9,-20082,25.9,-26123,25.9,-18033,25.9,-26198,25.9,-26192,25.9,-26192,25.9,-24195,25.9,-15635,25.9,-26215,25.9,-26191,25.9,-26191,0
26,-17674,26,-19821,26,-19101,26,-26206,26,-15555,26,-17043,26,-18675,26,-26218,26,-19750,26,-17944,26,-19950,26,-18869,26,-18138,26,-16310,26,-19530,26,-19186,26,-20832,26,-24750,26,-22641,26,-22746,26,-19156,26,-19323,26,-24505,26,-23009,26,-23618,26,-20112,26,-26106,26,-18091,26,-26203,26,-26192,26,-26192,26,-24218,26,-15639,26,-26222,26,-26192,26,-26192,0
26.1,-17732,26.1,-19854,26.1,-19127,26.1,-26221,26.1,-15603,26.1,-17083,26.1,-18725,26.1,-26219,26.1,-19756,26.1,-17941,26.1,-19940,26.1,-18885,26.1,-18191,26.1,-16330,26.1,-19559,26.1,-19220,26.1,-20844,26.1,-24728,26.1,-22609,26.1,-22734,26.1,-19180,26.1,-19278,26.1,-24487,26.1,-22971,26.1,-23586,26.1,-20095,26.1,-26091,26.1,-18090,26.1,-26200,26.1,-26189,26.1,-26189,26.1,-24206,26.1,-15657,26.1,-26214,26.1,-26194,26.1,-26194,0
26.2,-17723,26.2,-19827,26.2,-19143,26.2,-26206,26.2,-15589,26.2,-17070,26.2,-18743,26.2,-26211,26.2,-19719,26.2,-17929,26.2,-19923,26.2,-18909,26.2,-18167,26.2,-16283,26.2,-19543,26.2,-19212,26.2,-20777,26.2,-24712,26.2,-22577,26.2,-22719,26.2,-19129,26.2,-19303,26.2,-24484,26.2,-22972,26.2,-23582,26.2,-20097,26.2,-26072,26.2,-18094,26.2,-26196,26.2,-26191,26.2,-26191,26.2,-24182,26.2,-15646,26.2,-26215,26.2,-26196,26.2,-26196,0
26.3,-17741,26.3,-19882,26.3,-19149,26.3,-26218,26.3,-15588,26.3,-17068,26.3,-18732,26.3,-26209,26.3,-19737,26.3,-17938,26.3,-19940,26.3,-18918,26.3,-18157,26.3,-16276,26.3,-19529,26.3,-19229,26.3,-20737,26.3,-24679,26.3,-22511,26.3,-22666,26.3,-19075,26.3,-19302,26.3,-24528,26.3,-22965,26.3,-23578,26.3,-20077,26.3,-26117,26.3,-18083,26.3,-26206,26.3,-26191,26.3,-26191,26.3,-24213,26.3,-15638,26.3,-26219,26.3,-26197,26.3,-26197,0
26.4,-17684,26.4,-19790,26.4,-19117,26.4,-26204,26.4,-15555,26.4,-17047,26.4,-18719,26.4,-26204,26.4,-19732,26.4,-17935,26.4,-19926,26.4,-18896,26.4,-18159,26.4,-16271,26.4,-19511,26.4,-19181,26.4,-20812,26.4,-24764,26.4,-22573,26.4,-22687,26.4,-19104,26.4,-19282,26.4,-24504,26.4,-22941,26.4,-23590,26.4,-20090,26.4,-26112,26.4,-18026,26.4,-26201,26.4,-26185,26.4,-26185,26.4,-24160,26.4,-15614,26.4,-26208,26.4,-26193,26.4,-26193,0
26.5,-17658,26.5,-19807,26.5,-19078,26.5,-26195,26.5,-15522,26.5,-17003,26.5,-18686,26.5,-26199,26.5,-19681,26.5,-17884,26.5,-19864,26.5,-18851,26.5,-18134,26.5,-16306,26.5,-19517,26.5,-19182,26.5,-20733,26.5,-24710,26.5,-22547,26.5,-22641,26.5,-19069,26.5,-19293,26.5,-24527,26.5,-22952,26.5,-23555,26.5,-20064,26.5,-26162,26.5,-18012,26.5,-26213,26.5,-26187,26.5,-26187,26.5,-24168,26.5,-15608,26.5,-26226,26.5,-26188,26.5,-26188,0
26.6,-17653,26.6,-19791,26.6,-19051,26.6,-26214,26.6,-15525,26.6,-17011,26.6,-18689,26.6,-26228,26.6,-19668,26.6,-17860,26.6,-19846,26.6,-18805,26.6,-18103,26.6,-16284,26.6,-19511,26.6,-19152,26.6,-20728,26.6,-24702,26.6,-22477,26.6,-22627,26.6,-19020,26.6,-19317,26.6,-24520,26.6,-22977,26.6,-23592,26.6,-20048,26.6,-26141,26.6,-17959,26.6,-26209,26.6,-26197,26.6,-26197,26.6,-24141,26.6,-15560,26.6,-26215,26.6,-26195,26.6,-26195,0
26.7,-17569,26.7,-19710,26.7,-18995,26.7,-26197,26.7,-15457,26.7,-16949,26.7,-18617,26.7,-26190,26.7,-19658,26.7,-17811,26.7,-19823,26.7,-18796,26.7,-18095,26.7,-16243,26.7,-19491,26.7,-19154,26.7,-20625,26.7,-24673,26.7,-22501,26.7,-22609,26.7,-19007,26.7,-19357,26.7,-24555,26.7,-22996,26.7,-23640,26.7,-20089,26.7,-26146,26.7,-17999,26.7,-26210,26.7,-26184,26.7,-26184,26.7,-24187,26.7,-15593,26.7,-26218,26.7,-26187,26.7,-26187,0
26.8,-17682,26.8,-19818,26.8,-19091,26.8,-26218,26.8,-15568,26.8,-17051,26.8,-18694,26.8,-26222,26.8,-19731,26.8,-17909,26.8,-19927,26.8,-18872,26.8,-18131,26.8,-16272,26.8,-19515,26.8,-19185,26.8,-20811,26.8,-24734,26.8,-22607,26.8,-22725,26.8,-19105,26.8,-19311,26.8,-24529,26.8,-22985,26.8,-23608,26.8,-20076,26.8,-26143,26.8,-18067,26.8,-26189,26.8,-26188,26.8,-26188,26.8,-24207,26.8,-15632,26.8,-26210,26.8,-26193,26.8,-26193,0
26.9,-17772,26.9,-19883,26.9,-19158,26.9,-26237,26.9,-15583,26.9,-17088,26.9,-18719,26.9,-26220,26.9,-19756,26.9,-17972,26.9,-19962,26.9,-18940,26.9,-18213,26.9,-16346,26.9,-19567,26.9,-19217,26.9,-20793,26.9,-24709,26.9,-22576,26.9,-22720,26.9,-19131,26.9,-19237,26.9,-24461,26.9,-22945,26.9,-23565,26.9,-20068,26.9,-26091,26.9,-18149,26.9,-26214,26.9,-26193,26.9,-26193,26.9,-24274,26.9,-15665,26.9,-26218,26.9,-26182,26.9,-26182,0
27,-17775,27,-19894,27,-19190,27,-26217,27,-15621,27,-17125,27,-18754,27,-26230,27,-19749,27,-17947,27,-19929,27,-18912,27,-18206,27,-16303,27,-19547,27,-19243,27,-20822,27,-24727,27,-22599,27,-22748,27,-19148,27,-19283,27,-24490,27,-22948,27,-23567,27,-20083,27,-26084,27,-18145,27,-26217,27,-26193,27,-26193,27,-24236,27,-15695,27,-26226,27,-26191,27,-26191,0
27.1,-17758,27.1,-19908,27.1,-19149,27.1,-26200,27.1,-15602,27.1,-17126,27.1,-18740,27.1,-26208,27.1,-19786,27.1,-18012,27.1,-19978,27.1,-18957,27.1,-18181,27.1,-16343,27.1,-19545,27.1,-19224,27.1,-20771,27.1,-24701,27.1,-22575,27.1,-22705,27.1,-19139,27.1,-19374,27.1,-24572,27.1,-23037,27.1,-23655,27.1,-20122,27.1,-26176,27.1,-18095,27.1,-26193,27.1,-26189,27.1,-26189,27.1,-24170,27.1,-15640,27.1,-26202,27.1,-26196,27.1,-26196,0
27.2,-17759,27.2,-19874,27.2,-19164,27.2,-26212,27.2,-15540,27.2,-17078,27.2,-18730,27.2,-26182,27.2,-19778,27.2,-17952,27.2,-19924,27.2,-18905,27.2,-18193,27.2,-16303,27.2,-19538,27.2,-19241,27.2,-20778,27.2,-24722,27.2,-22541,27.2,-22675,27.2,-19117,27.2,-19328,27.2,-24530,27.2,-22962,27.2,-23594,27.2,-20064,27.2,-26116,27.2,-18078,27.2,-26208,27.2,-26187,27.2,-26187,27.2,-24180,27.2,-15614,27.2,-26223,27.2,-26192,27.2,-26192,0
27.3,-17715,27.3,-19855,27.3,-19113,27.3,-26206,27.3,-15585,27.3,-17120,27.3,-18745,27.3,-26217,27.3,-19736,27.3,-17957,27.3,-19920,27.3,-18904,27.3,-18152,27.3,-16282,27.3,-19522,27.3,-19199,27.3,-20811,27.3,-24711,27.3,-22527,27.3,-22652,27.3,-19089,27.3,-19224,27.3,-24477,27.3,-22939,27.3,-23547,27.3,-20028,27.3,-26082,27.3,-18062,27.3,-26218,27.3,-26192,27.3,-26192,27.3,-24186,27.3,-15617,27.3,-26215,27.3,-26193,27.3,-26193,0
27.4,-17696,27.4,-19847,27.4,-19094,27.4,-26220,27.4,-15580,27.4,-17070,27.4,-18708,27.4,-26229,27.4,-19698,27.4,-17883,27.4,-19860,27.4,-18866,27.4,-18135,27.4,-16308,27.4,-19503,27.4,-19172,27.4,-20709,27.4,-24689,27.4,-22489,27.4,-22606,27.4,-19014,27.4,-19287,27.4,-24477,27.4,-22952,27.4,-23565,27.4,-20068,27.4,-26112,27.4,-17979,27.4,-26199,27.4,-26195,27.4,-26195,27.4,-24114,27.4,-15567,27.4,-26210,27.4,-26189,27.4,-26189,0
27.5,-17648,27.5,-19815,27.5,-19059,27.5,-26216,27.5,-15503,27.5,-17019,27.5,-18666,27.5,-26212,27.5,-19666,27.5,-17843,27.5,-19811,27.5,-18804,27.5,-18131,27.5,-16292,27.5,-19499,27.5,-19162,27.5,-20722,27.5,-24679,27.5,-22498,27.5,-22591,27.5,-18999,27.5,-19249,27.5,-24494,27.5,-22906,27.5,-23548,27.5,-20039,27.5,-26117,27.5,-17957,27.5,-26218,27.5,-26183,27.5,-26183,27.5,-24142,27.5,-15537,27.5,-26215,27.5,-26184,27.5,-26184,0
27.6,-17594,27.6,-19748,27.6,-19001,27.6,-26204,27.6,-15514,27.6,-17031,27.6,-18644,27.6,-26216,27.6,-19689,27.6,-17867,27.6,-19864,27.6,-18815,27.6,-18091,27.6,-16209,27.6,-19478,27.6,-19143,27.6,-20753,27.6,-24747,27.6,-22534,27.6,-22661,27.6,-19052,27.6,-19239,27.6,-24530,27.6,-22967,27.6,-23572,27.6,-20058,27.6,-26137,27.6,-18014,27.6,-26215,27.6,-26197,27.6,-26197,27.6,-24174,27.6,-15550,27.6,-26218,27.6,-26194,27.6,-26194,0
27.7,-17669,27.7,-19834,27.7,-19076,27.7,-26210,27.7,-15534,27.7,-17073,27.7,-18656,27.7,-26206,27.7,-19724,27.7,-17925,27.7,-19932,27.7,-18882,27.7,-18191,27.7,-16316,27.7,-19560,27.7,-19205,27.7,-20719,27.7,-24705,27.7,-22562,27.7,-22661,27.7,-19070,27.7,-19202,27.7,-24488,27.7,-22955,27.7,-23574,27.7,-20070,27.7,-26099,27.7,-18077,27.7,-26211,27.7,-26193,27.7,-26193,27.7,-24232,27.7,-15604,27.7,-26224,27.7,-26190,27.7,-26190,0
27.8,-17722,27.8,-19869,27.8,-19119,27.8,-26208,27.8,-15553,27.8,-17108,27.8,-18707,27.8,-26212,27.8,-19765,27.8,-17957,27.8,-19962,27.8,-18905,27.8,-18150,27.8,-16247,27.8,-19516,27.8,-19209,27.8,-20862,27.8,-24791,27.8,-22620,27.8,-22747,27.8,-19169,27.8,-19302,27.8,-24541,27.8,-22985,27.8,-23604,27.8,-20116,27.8,-26170,27.8,-18079,27.8,-26207,27.8,-26182,27.8,-26182,27.8,-24196,27.8,-15600,27.8,-26205,27.8,-26197,27.8,-26197,0
27.9,-17735,27.9,-19876,27.9,-19133,27.9,-26209,27.9,-15563,27.9,-17102,27.9,-18703,27.9,-26218,27.9,-19744,27.9,-17955,27.9,-19945,27.9,-18899,27.9,-18165,27.9,-16329,27.9,-19557,27.9,-19224,27.9,-20725,27.9,-24704,27.9,-22584,27.9,-22684,27.9,-19124,27.9,-19264,27.9,-24515,27.9,-22989,27.9,-23559,27.9,-20082,27.9,-26114,27.9,-18063,27.9,-26203,27.9,-26190,27.9,-26190,27.9,-24190,27.9,-15609,27.9,-26211,27.9,-26187,27.9,-26187,0
28,-17712,28,-19862,28,-19093,28,-26202,28,-15538,28,-17083,28,-18697,28,-26205,28,-19760,28,-17933,28,-19925,28,-18903,28,-18163,28,-16284,28,-19534,28,-19206,28,-20714,28,-24722,28,-22511,28,-22632,28,-19098,28,-19335,28,-24554,28,-23019,28,-23596,28,-20101,28,-26150,28,-18060,28,-26198,28,-26187,28,-26187,28,-24201,28,-15604,28,-26225,28,-26192,28,-26192,0
28.1,-17674,28.1,-19817,28.1,-19091,28.1,-26193,28.1,-15557,28.1,-17071,28.1,-18705,28.1,-26223,28.1,-19749,28.1,-17923,28.1,-19921,28.1,-18870,28.1,-18129,28.1,-16219,28.1,-19503,28.1,-19182,28.1,-20729,28.1,-24694,28.1,-22512,28.1,-22629,28.1,-19083,28.1,-19302,28.1,-24573,28.1,-23018,28.1,-23610,28.1,-20086,28.1,-26179,28.1,-18014,28.1,-26212,28.1,-26187,28.1,-26187,28.1,-24152,28.1,-15570,28.1,-26221,28.1,-26197,28.1,-26197,0
28.2,-17660,28.2,-19825,28.2,-19060,28.2,-26219,28.2,-15480,28.2,-17037,28.2,-18663,28.2,-26194,28.2,-19699,28.2,-17884,28.2,-19878,28.2,-18828,28.2,-18140,28.2,-16279,28.2,-19518,28.2,-19160,28.2,-20736,28.2,-24695,28.2,-22488,28.2,-22636,28.2,-19070,28.2,-19132,28.2,-24501,28.2,-22919,28.2,-23481,28.2,-20030,28.2,-26125,28.2,-17958,28.2,-26200,28.2,-26190,28.2,-26190,28.2,-24099,28.2,-15536,28.2,-26221,28.2,-26192,28.2,-26192,0
28.3,-17601,28.3,-19791,28.3,-19029,28.3,-26195,28.3,-15501,28.3,-17011,28.3,-18647,28.3,-26220,28.3,-19678,28.3,-17865,28.3,-19852,28.3,-18799,28.3,-18090,28.3,-16225,28.3,-19462,28.3,-19114,28.3,-20668,28.3,-24721,28.3,-22493,28.3,-22597,28.3,-19003,28.3,-19186,28.3,-24498,28.3,-22926,28.3,-23564,28.3,-20017,28.3,-26147,28.3,-17930,28.3,-26211,28.3,-26187,28.3,-26187,28.3,-24129,28.3,-15499,28.3,-26204,28.3,-26195,28.3,-26195,0
28.4,-17573,28.4,-19754,28.4,-18952,28.4,-26206,28.4,-15436,28.4,-16968,28.4,-18589,28.4,-26214,28.4,-19653,28.4,-17810,28.4,-19807,28.4,-18730,28.4,-18077,28.4,-16199,28.4,-19454,28.4,-19086,28.4,-20618,28.4,-24668,28.4,-22419,28.4,-22560,28.4,-18989,28.4,-19161,28.4,-24454,28.4,-22917,28.4,-23526,28.4,-20028,28.4,-26086,28.4,-17926,28.4,-26205,28.4,-26189,28.4,-26189,28.4,-24118,28.4,-15484,28.4,-26202,28.4,-26187,28.4,-26187,0
28.5,-17597,28.5,-19769,28.5,-19006,28.5,-26202,28.5,-15458,28.5,-16994,28.5,-18615,28.5,-26204,28.5,-19701,28.5,-17863,28.5,-19878,28.5,-18808,28.5,-18106,28.5,-16237,28.5,-19531,28.5,-19130,28.5,-20749,28.5,-24734,28.5,-22573,28.5,-22658,28.5,-19086,28.5,-19273,28.5,-24535,28.5,-23019,28.5,-23609,28.5,-20082,28.5,-26156,28.5,-17993,28.5,-26216,28.5,-26188,28.5,-26188,28.5,-24186,28.5,-15550,28.5,-26224,28.5,-26195,28.5,-26195,0
28.6,-17662,28.6,-19870,28.6,-19037,28.6,-26205,28.6,-15443,28.6,-17003,28.6,-18612,28.6,-26188,28.6,-19707,28.6,-17878,28.6,-19886,28.6,-18837,28.6,-18104,28.6,-16212,28.6,-19507,28.6,-19160,28.6,-20684,28.6,-24666,28.6,-22518,28.6,-22658,28.6,-19070,28.6,-19274,28.6,-24573,28.6,-23029,28.6,-23624,28.6,-20073,28.6,-26194,28.6,-18021,28.6,-26198,28.6,-26192,28.6,-26192,28.6,-24169,28.6,-15551,28.6,-26209,28.6,-26192,28.6,-26192,0
28.7,-17675,28.7,-19853,28.7,-19043,28.7,-26209,28.7,-15495,28.7,-17055,28.7,-18616,28.7,-26189,28.7,-19723,28.7,-17907,28.7,-19914,28.7,-18862,28.7,-18158,28.7,-16206,28.7,-19504,28.7,-19157,28.7,-20725,28.7,-24719,28.7,-22574,28.7,-22646,28.7,-19101,28.7,-19208,28.7,-24504,28.7,-22989,28.7,-23613,28.7,-20037,28.7,-26142,28.7,-18027,28.7,-26213,28.7,-26193,28.7,-26193,28.7,-24183,28.7,-15554,28.7,-26226,28.7,-26195,28.7,-26195,0
